Server clock before sync: 37
Synchronizing server_clock...
[1/51] [2/51] [3/51] [4/51] [5/51] [6/51] [7/51] [8/51] [9/51] [10/51] 
[11/51] [12/51] [13/51] [14/51] [15/51] [16/51] [17/51] [18/51] [19/51] [20/51] 
[21/51] [22/51] [23/51] [24/51] [25/51] [26/51] [27/51] [28/51] [29/51] [30/51] 
[31/51] [32/51] [33/51] [34/51] [35/51] [36/51] [37/51] [38/51] [39/51] [40/51] 
[41/51] [42/51] [43/51] [44/51] [45/51] [46/51] [47/51] [48/51] [49/51] [50/51] 
Best Server Sync RTT: 18148, Worst Server Sync RTT: 22894
Average RTT: 18931.640000
Est Server Time: 633615605, Computed Server Time offset: 632668710
Server clock after sync: 633615606

====== SIMULATION METADATA     =====
Server IP: 128.83.139.94, Port: 8010
Server Drift: 10.00 PPM, Client VHC Drift: -10.00 PPM
Relative Drift Weight: -3.50
Local Server Time Error: 9074
Rapport Period: 20000000
Amortization Period: 5000000
Simulation runtime: 1800 seconds
Simulation runtime: 1800000000 usec, 
 Start: 253732024, End: 2053732024
====== SIMULATION OUTPUT START =====
Current Real Time,Real Time Elapsed (sec),Local Server Time,Hardware Clock Time,Software Clock Time,Error,Remote Est Time,
253732034,0.00001,633615617,946889,946889,-632668728,,
253750343,0.01832,633633926,965197,965198,-632668728,633634000,
253803749,0.07172,633687333,1018603,7776391,-625910942,,
253855152,0.12313,633738736,1070006,14332009,-619406727,,
253905594,0.17357,633789179,1120447,20765067,-613024112,,
253955779,0.22376,633839364,1170631,27165094,-606674270,,
254006121,0.27410,633889707,1220974,33585526,-600304181,,
254056685,0.32466,633940271,1271537,40034016,-593906255,,
254106828,0.37480,633990415,1321678,46428813,-587561602,,
254156940,0.42492,634040527,1371789,52819530,-581220997,,
254207063,0.47504,634090649,1421912,59211905,-574878744,,
254257661,0.52564,634141249,1472509,65664858,-568476391,,
254307809,0.57578,634191397,1522657,72060294,-562131103,,
254357908,0.62588,634241495,1572754,78449352,-555792143,,
254408074,0.67605,634291663,1622921,84847339,-549444324,,
254458364,0.72634,634341953,1673209,91260884,-543081069,,
254508944,0.77692,634392533,1723790,97711542,-536680991,,
254559188,0.82716,634442777,1774032,104119093,-530323684,,
254609526,0.87750,634493115,1824369,110538760,-523954355,,
254659653,0.92763,634543242,1874496,116931644,-517611598,,
254709766,0.97774,634593356,1924608,123322616,-511270740,,
254759895,1.02787,634643485,1974736,129715629,-504927856,,
254810370,1.07835,634693961,2025211,136153023,-498540938,,
254860493,1.12847,634744084,2075333,142546545,-492197539,,
254910617,1.17859,634794209,2125456,148937645,-485856564,,
254960887,1.22886,634844479,2175726,155348767,-479495712,,
255011123,1.27910,634894715,2225962,161755425,-473139290,,
255061257,1.32923,634944849,2276094,168148948,-466795901,,
255111796,1.37977,634995389,2326633,174594504,-460400885,,
255162102,1.43008,635045695,2376938,181010090,-454035605,,
255213194,1.48117,635096787,2428029,187525790,-447570997,,
255263767,1.53174,635147361,2478602,193975555,-441171806,,
255313968,1.58194,635197562,2528803,200377877,-434819685,,
255364490,1.63247,635248085,2579323,206821010,-428427075,,
255415110,1.68309,635298705,2629942,213276641,-422022064,,
255465720,1.73370,635349314,2680552,219730998,-415618316,,
255516068,1.78404,635399664,2730900,226152067,-409247597,,
255566577,1.83455,635450173,2781418,232594945,-402855228,,
255616829,1.88481,635500425,2831670,239003772,-396496653,,
255666964,1.93494,635550560,2881803,245397294,-390153266,,
255717648,1.98562,635601245,2932476,251859813,-383741432,,
255768234,2.03621,635651831,2983063,258311363,-377340468,,
255818874,2.08685,635702472,3033701,264769545,-370932927,,
255869805,2.13778,635753414,3084643,271266370,-364487044,,
255919981,2.18796,635803579,3134807,277663974,-358139605,,
255970591,2.23857,635854190,3185427,284119605,-351734585,,
256020725,2.28870,635904325,3235550,290511980,-345392345,,
256071158,2.33913,635954756,3285982,296943762,-339010994,,
256122133,2.39011,636005743,3336966,303446071,-332559672,,
256172312,2.44029,636055912,3387134,309844185,-326211727,,
256222879,2.49085,636106479,3437701,316294332,-319812147,,
256273523,2.54150,636157124,3488344,322751749,-313405375,,
256324040,2.59202,636207650,3538870,329195520,-307012130,,
256374562,2.64254,636258163,3589382,335638908,-300619255,,
256425070,2.69305,636308671,3639889,342078853,-294229818,,
256475686,2.74366,636359298,3690515,348535505,-287823793,,
256526114,2.79409,636409716,3740931,354965247,-281444469,,
256576743,2.84472,636460346,3791561,361422154,-275038192,,
256627298,2.89527,636510900,3842114,367869368,-268641532,,
256677808,2.94578,636561410,3892622,374310971,-262250439,,
256728089,2.99607,636611693,3942904,380723623,-255888070,,
256778384,3.04636,636661988,3993198,387137806,-249524182,,
256828981,3.09696,636712584,4043794,393590377,-243122207,,
256879647,3.14762,636763252,4094460,400052130,-236711122,,
256930108,3.19808,636813713,4144920,406487356,-230326357,,
256980732,3.24871,636864337,4195543,412943497,-223920840,,
257031788,3.29976,636915393,4246599,419454861,-217460532,,
257082357,3.35033,636965963,4297168,425904116,-211061847,,
257132461,3.40044,637016078,4347282,432295343,-204720735,,
257182738,3.45071,637066345,4397547,438705955,-198360390,,
257232866,3.50084,637116473,4447674,445100115,-192016358,,
257283000,3.55098,637166607,4497817,451493765,-185672842,,
257333150,3.60113,637216758,4547957,457888180,-179328578,,
257383801,3.65178,637267409,4598607,464347893,-172919516,,
257433960,3.70194,637317577,4648775,470745879,-166571698,,
257484148,3.75212,637367767,4698964,477146671,-160221096,,
257534739,3.80272,637418359,4749554,483598731,-153819628,,
257585365,3.85334,637468983,4800178,490055000,-147413983,,
257635523,3.90350,637519133,4850327,496450691,-141068442,,
257686393,3.95437,637570002,4901195,502937951,-134632051,,
257736897,4.00487,637620506,4951698,509378788,-128241718,,
257787254,4.05523,637670865,5002055,515801006,-121869859,,
257837825,4.10580,637721435,5052625,522250388,-115471047,,
257887944,4.15592,637771554,5102743,528642125,-109129429,,
257938991,4.20697,637822602,5153789,535152214,-102670388,,
257989986,4.25796,637873597,5204784,541655925,-96217672,,
258040323,4.30830,637923935,5255120,548075465,-89848470,,
258090885,4.35886,637974498,5305683,554523954,-83450544,,
258141498,4.40947,638025110,5356294,560978438,-77046672,,
258192560,4.46054,638076173,5407355,567490567,-70585606,,
258242756,4.51073,638126369,5457550,573892124,-64234245,,
258293729,4.56170,638177353,5508534,580394178,-57783175,,
258344335,4.61231,638227948,5559128,586846621,-51381327,,
258394511,4.66249,638278124,5609303,593245627,-45032497,,
258445149,4.71312,638328764,5659942,599703809,-38624955,,
258495698,4.76367,638379312,5710489,606150258,-32229054,,
258545891,4.81387,638429505,5760681,612551433,-25878072,,
258596178,4.86415,638479794,5810969,618964850,-19514944,,
258646672,4.91465,638530300,5861473,625405943,-13124357,,
258697322,4.96530,638580938,5912111,631863870,-6717068,,
258747919,5.01590,638631546,5962718,638317971,-313575,,
258798052,5.06603,638681669,6012840,638681644,-25,,
258848955,5.11693,638732571,6063741,638732545,-26,,
258899105,5.16708,638782723,6113890,638782705,-18,,
258949397,5.21737,638833015,6164182,638832987,-28,,
259000026,5.26800,638883644,6214810,638883625,-19,,
259050174,5.31815,638933793,6264958,638933762,-31,,
259100342,5.36832,638983961,6315126,638983930,-31,,
259150460,5.41844,639034079,6365243,639034047,-32,,
259200812,5.46879,639084432,6415594,639084398,-34,,
259251251,5.51923,639134871,6466042,639134847,-24,,
259301385,5.56936,639185015,6516176,639184980,-35,,
259351523,5.61950,639235144,6566302,639235107,-37,,
259401946,5.66992,639285567,6616726,639285530,-37,,
259452095,5.72007,639335715,6666873,639335678,-37,,
259502466,5.77044,639386089,6717245,639386049,-40,,
259552820,5.82080,639436442,6767598,639436402,-40,,
259602944,5.87092,639486566,6817720,639486535,-31,,
259653126,5.92110,639536749,6867911,639536716,-33,,
259703690,5.97167,639587313,6918466,639587270,-43,,
259754313,6.02229,639637945,6969097,639637901,-44,,
259804474,6.07245,639688098,7019248,639688052,-46,,
259855025,6.12300,639738649,7069799,639738603,-46,,
259905578,6.17355,639789212,7120361,639789165,-47,,
259956399,6.22438,639840024,7171171,639839975,-49,,
260006943,6.27492,639890567,7221714,639890518,-49,,
260057659,6.32564,639941284,7272429,639941234,-50,,
260107785,6.37576,639991411,7322555,639991359,-52,,
260158370,6.42635,640041996,7373139,640041943,-53,,
260208868,6.47684,640092504,7423646,640092451,-53,,
260259405,6.52738,640143032,7474173,640142977,-55,,
260309548,6.57752,640193175,7524315,640193119,-56,,
260359786,6.62776,640243413,7574552,640243357,-56,,
260410405,6.67838,640294032,7625170,640293974,-58,,
260460900,6.72888,640344528,7675664,640344468,-60,,
260511017,6.77899,640394645,7725782,640394587,-58,,
260561496,6.82947,640445125,7776259,640445064,-61,,
260611618,6.87959,640495247,7826380,640495185,-62,,
260661802,6.92978,640545431,7876564,640545379,-52,,
260712882,6.98086,640596512,7927643,640596447,-65,,
260763020,7.03100,640646649,7977779,640646584,-65,,
260813626,7.08160,640697266,8028397,640697201,-65,,
260863782,7.13176,640747413,8078542,640747346,-67,,
260914424,7.18240,640798055,8129182,640797987,-68,,
260964464,7.23244,640848095,8179222,640848027,-68,,
261015179,7.28315,640898810,8229936,640898740,-70,,
261065276,7.33325,640948908,8280032,640948837,-71,,
261115883,7.38386,640999515,8330640,640999444,-71,,
261166074,7.43405,641049705,8380829,641049633,-72,,
261216608,7.48458,641100241,8431362,641100167,-74,,
261266780,7.53476,641150424,8481545,641150349,-75,,
261316953,7.58493,641200585,8531706,641200510,-75,,
261367468,7.63544,641251102,8582221,641251025,-77,,
261417566,7.68554,641301200,8632317,641301121,-79,,
261467655,7.73563,641351289,8682418,641351223,-66,,
261517942,7.78592,641401577,8732692,641401497,-80,,
261569009,7.83699,641452644,8783759,641452563,-81,,
261619211,7.88719,641502846,8833961,641502765,-81,,
261669324,7.93730,641552960,8884073,641552877,-83,,
261719547,7.98752,641603183,8934311,641603115,-68,,
261769673,8.03765,641653309,8984420,641653224,-85,,
261819992,8.08797,641703629,9034738,641703543,-86,,
261870547,8.13852,641754183,9085292,641754096,-87,,
261920818,8.18879,641804456,9135564,641804369,-87,,
261971293,8.23927,641854931,9186037,641854842,-89,,
262021419,8.28940,641905056,9236162,641904966,-90,,
262072087,8.34006,641955724,9286830,641955634,-90,,
262122954,8.39093,642006603,9337706,642006511,-92,,
262173155,8.44113,642056794,9387896,642056700,-94,,
262223301,8.49128,642106939,9438042,642106846,-93,,
262273512,8.54149,642157152,9488253,642157057,-95,,
262323755,8.59173,642207394,9538493,642207308,-86,,
262374375,8.64235,642258015,9589115,642257919,-96,,
262424859,8.69284,642308500,9639597,642308402,-98,,
262474998,8.74297,642358639,9689735,642358539,-100,,
262525475,8.79345,642409116,9740212,642409016,-100,,
262575803,8.84378,642459444,9790539,642459343,-101,,
262625928,8.89390,642509570,9840663,642509468,-102,,
262676054,8.94403,642559696,9890789,642559594,-102,,
262726181,8.99416,642609824,9940915,642609719,-105,,
262776300,9.04428,642659943,9991033,642659847,-96,,
262826481,9.09446,642710124,10041213,642710017,-107,,
262877065,9.14504,642760709,10091797,642760602,-107,,
262927254,9.19523,642810898,10141985,642810789,-109,,
262977391,9.24537,642861035,10192122,642860926,-109,,
263027553,9.29553,642911198,10242284,642911088,-110,,
263078107,9.34608,642961752,10292837,642961642,-110,,
263128309,9.39629,643011963,10343047,643011852,-111,,
263178524,9.44650,643062170,10393252,643062057,-113,,
263228996,9.49697,643112642,10443723,643112528,-114,,
263279286,9.54726,643162932,10494012,643162817,-115,,
263330055,9.59803,643213702,10544782,643213586,-116,,
263380588,9.64856,643264235,10595313,643264118,-117,,
263431038,9.69901,643314685,10645763,643314567,-118,,
263481344,9.74932,643365002,10696078,643364883,-119,,
263531494,9.79947,643415141,10746228,643415032,-109,,
263581759,9.84974,643465406,10796491,643465295,-111,,
263632364,9.90034,643516012,10847086,643515890,-122,,
263682481,9.95046,643566130,10897202,643566007,-123,,
263732593,10.00057,643616252,10947324,643616128,-124,,
263782878,10.05085,643666526,10997608,643666412,-114,,
263833461,10.10144,643717111,11048180,643716985,-126,,
263884038,10.15201,643767699,11098767,643767572,-127,,
263934216,10.20219,643817866,11148943,643817748,-118,,
263984835,10.25281,643868486,11199553,643868357,-129,,
264035229,10.30321,643918890,11249956,643918760,-130,,
264085634,10.35361,643969284,11300349,643969154,-130,,
264135979,10.40395,644019631,11350695,644019499,-132,,
264186329,10.45430,644069981,11401043,644069847,-134,,
264236480,10.50446,644120132,11451194,644119999,-133,,
264287405,10.55538,644171057,11502118,644170923,-134,,
264337775,10.60575,644221437,11552497,644221302,-135,,
264388260,10.65624,644271912,11602971,644271776,-136,,
264438351,10.70633,644322015,11653072,644321877,-138,,
264488674,10.75665,644372327,11703384,644372188,-139,,
264539011,10.80699,644422664,11753720,644422524,-140,,
264589371,10.85735,644473026,11804080,644472885,-141,,
264639523,10.90750,644523177,11854231,644523036,-141,,
264690125,10.95810,644573780,11904833,644573637,-143,,
264740539,11.00851,644624195,11955246,644624061,-134,,
264790842,11.05882,644674498,12005549,644674353,-145,,
264841471,11.10945,644725126,12056176,644724981,-145,,
264892287,11.16026,644775943,12106992,644775797,-146,,
264942925,11.21090,644826581,12157629,644826433,-148,,
264993512,11.26149,644877169,12208216,644877020,-149,,
265043854,11.31183,644927521,12258567,644927372,-149,,
265094550,11.36253,644978208,12309252,644978057,-151,,
265144835,11.41281,645028493,12359537,645028341,-152,,
265195239,11.46321,645078898,12409939,645078744,-154,,
265245841,11.51382,645129500,12460541,645129346,-154,,
265296250,11.56423,645179908,12510949,645179753,-155,,
265346769,11.61474,645230429,12561468,645230272,-157,,
265397161,11.66514,645280821,12611859,645280664,-157,,
265447604,11.71558,645331264,12662301,645331106,-158,,
265497898,11.76587,645381559,12712594,645381399,-160,,
265548297,11.81627,645431958,12762994,645431798,-160,,
265599231,11.86721,645482902,12813936,645482741,-161,,
265649388,11.91736,645533050,12864082,645532887,-163,,
265700118,11.96809,645583780,12914812,645583617,-163,,
265750670,12.01865,645634332,12965363,645634168,-164,,
265801207,12.06918,645684870,13015900,645684704,-166,,
265851809,12.11979,645735472,13066502,645735306,-166,,
265902814,12.17079,645786477,13117505,645786310,-167,,
265953312,12.22129,645836976,13168002,645836807,-169,,
266003421,12.27140,645887085,13218112,645886916,-169,,
266054267,12.32224,645937930,13268956,645937760,-170,,
266105107,12.37308,645988772,13319795,645988600,-172,,
266155836,12.42381,646039501,13370524,646039328,-173,,
266206671,12.47465,646090336,13421359,646090163,-173,,
266257274,12.52525,646140940,13471961,646140765,-175,,
266307412,12.57539,646191077,13522097,646190901,-176,,
266358137,12.62611,646241804,13572823,646241628,-176,,
266409099,12.67708,646292766,13623783,646292588,-178,,
266459703,12.72768,646343369,13674386,646343190,-179,,
266510253,12.77823,646393920,13724936,646393741,-179,,
266561294,12.82927,646444962,13775976,646444781,-181,,
266611396,12.87937,646495063,13826077,646494881,-182,,
266661952,12.92993,646545620,13876633,646545437,-183,,
266712146,12.98012,646595815,13926826,646595631,-184,,
266762522,13.03050,646646191,13977202,646646006,-185,,
266813505,13.08148,646697173,14028184,646696988,-185,,
266864048,13.13202,646747718,14078727,646747531,-187,,
266914157,13.18213,646797827,14128834,646797639,-188,,
266964346,13.23232,646848016,14179023,646847828,-188,,
267014504,13.28248,646898174,14229180,646897985,-189,,
267065323,13.33330,646948993,14279998,646948803,-190,,
267115951,13.38393,646999622,14330637,646999441,-181,,
267166473,13.43445,647050145,14381148,647049952,-193,,
267217050,13.48503,647100722,14431723,647100528,-194,,
267267237,13.53521,647150909,14481909,647150714,-195,,
267317843,13.58582,647201515,14532515,647201329,-186,,
267368306,13.63628,647251979,14582977,647251782,-197,,
267418412,13.68639,647302096,14633093,647301898,-198,,
267468518,13.73649,647352201,14683198,647352003,-198,,
267518652,13.78663,647402325,14733321,647402125,-200,,
267568856,13.83683,647452540,14783535,647452339,-201,,
267619235,13.88721,647502908,14833903,647502707,-201,,
267669612,13.93759,647553287,14884289,647553093,-194,,
267719823,13.98780,647603497,14934489,647603293,-204,,
267770358,14.03833,647654033,14985024,647653829,-204,,
267820965,14.08894,647704641,15035630,647704435,-206,,
267871068,14.13904,647754743,15085732,647754536,-207,,
267921363,14.18934,647805048,15136037,647804841,-207,,
267971904,14.23988,647855580,15186567,647855371,-209,,
268022337,14.29031,647906013,15236999,647905803,-210,,
268073323,14.34130,647957000,15287985,647956790,-210,,
268123808,14.39178,648007486,15338469,648007274,-212,,
268174320,14.44230,648057997,15388990,648057794,-203,,
268225172,14.49315,648108860,15439843,648108647,-213,,
268275317,14.54329,648158996,15489977,648158781,-215,,
268325617,14.59359,648209296,15540275,648209080,-216,,
268375843,14.64382,648259531,15590511,648259315,-216,,
268426008,14.69398,648309687,15640665,648309469,-218,,
268476549,14.74452,648360228,15691205,648360010,-218,,
268526707,14.79468,648410387,15741363,648410167,-220,,
268576823,14.84480,648460504,15791478,648460293,-211,,
268627301,14.89528,648510981,15841955,648510770,-211,,
268677434,14.94541,648561114,15892087,648560891,-223,,
268727804,14.99578,648611485,15942457,648611261,-224,,
268778424,15.04640,648662105,15993076,648661880,-225,,
268828687,15.09666,648712369,16043338,648712143,-226,,
268878797,15.14677,648762480,16093448,648762252,-228,,
268929190,15.19717,648812872,16143840,648812644,-228,,
268979334,15.24731,648863016,16193983,648862787,-229,,
269029747,15.29772,648913431,16244396,648913201,-230,,
269080434,15.34841,648964118,16295083,648963888,-230,,
269130533,15.39851,649014216,16345180,649013984,-232,,
269180974,15.44895,649064660,16395623,649064427,-233,,
269231623,15.49960,649115307,16446269,649115073,-234,,
269282262,15.55024,649165947,16496908,649165712,-235,,
269332868,15.60084,649216554,16547514,649216318,-236,,
269383535,15.65151,649267221,16598180,649266984,-237,,
269433900,15.70188,649317585,16648543,649317347,-238,,
269484558,15.75253,649368245,16699202,649368006,-239,,
269534682,15.80266,649418368,16749324,649418138,-230,,
269584819,15.85280,649468506,16799460,649468265,-241,,
269635333,15.90331,649519021,16849975,649518779,-242,,
269685605,15.95358,649569293,16900246,649569050,-243,,
269736206,16.00418,649619905,16950857,649619662,-243,,
269786741,16.05472,649670430,17001379,649670184,-246,,
269836939,16.10491,649720640,17051589,649720393,-247,,
269887264,16.15524,649770953,17101901,649770706,-247,,
269937591,16.20557,649821280,17152227,649821032,-248,,
269988139,16.25612,649871829,17202775,649871580,-249,,
270038688,16.30666,649922377,17253323,649922127,-250,,
270089232,16.35721,649972921,17303866,649972671,-250,,
270139779,16.40776,650023470,17354413,650023218,-252,,
270190219,16.45819,650073910,17404852,650073657,-253,,
270240257,16.50823,650123947,17454888,650123693,-254,,
270290576,16.55855,650174267,17505208,650174012,-255,,
270341094,16.60907,650224786,17555726,650224531,-255,,
270391834,16.65981,650275526,17606464,650275269,-257,,
270442277,16.71025,650325981,17656919,650325724,-257,,
270492928,16.76090,650376621,17707557,650376361,-260,,
270544059,16.81204,650427752,17758687,650427492,-260,,
270594361,16.86234,650478054,17808989,650477793,-261,,
270644535,16.91251,650528228,17859162,650527966,-262,,
270694642,16.96262,650578336,17909268,650578073,-263,,
270744804,17.01278,650628511,17959442,650628246,-265,,
270794971,17.06295,650678665,18009596,650678400,-265,,
