Server clock before sync: 40
Synchronizing server_clock...
[1/51] [2/51] [3/51] [4/51] [5/51] [6/51] [7/51] [8/51] [9/51] [10/51] 
[11/51] [12/51] [13/51] [14/51] [15/51] [16/51] [17/51] [18/51] [19/51] [20/51] 
[21/51] [22/51] [23/51] [24/51] [25/51] [26/51] [27/51] [28/51] [29/51] [30/51] 
[31/51] [32/51] [33/51] [34/51] [35/51] [36/51] [37/51] [38/51] [39/51] [40/51] 
[41/51] [42/51] [43/51] [44/51] [45/51] [46/51] [47/51] [48/51] [49/51] [50/51] 
Best Server Sync RTT: 65942, Worst Server Sync RTT: 75820
Average RTT: 66493.760000
Est Server Time: 1595051501, Computed Server Time offset: 1591726454
Server clock after sync: 1595051502

====== SIMULATION METADATA     =====
Server IP: 128.83.139.94, Port: 8050
Server Drift: 50.00 PPM, Client VHC Drift: -50.00 PPM
Relative Drift Weight: -3.50
Local Server Time Error: 32971
Rapport Period: 30000000
Amortization Period: 5000000
Simulation runtime: 1800 seconds
Simulation runtime: 1800000000 usec, 
 Start: 191115917, End: 1991115917
====== SIMULATION OUTPUT START =====
Current Real Time,Real Time Elapsed (sec),Local Server Time,Hardware Clock Time,Software Clock Time,Error,Remote Est Time,
191116074,0.00016,1595051660,3324875,3324875,-1591726785,,
191181994,0.06608,1595117583,3390792,3390792,-1591726791,1595117538,
191207148,0.09123,1595142738,3415944,11423603,-1583719135,,
191258241,0.14232,1595193834,3467035,27739595,-1567454239,,
191308754,0.19284,1595244361,3517557,43873242,-1551371119,,
191358911,0.24299,1595294509,3567699,59885856,-1535408653,,
191409448,0.29353,1595345047,3618233,76023654,-1519321393,,
191460489,0.34457,1595396092,3669273,92323041,-1503073051,,
191511034,0.39512,1595446640,3719815,108463713,-1486982927,,
191562089,0.44617,1595497696,3770866,124766612,-1470731084,,
191612644,0.49673,1595548253,3821419,140910159,-1454638094,,
191663696,0.54778,1595599308,3872468,157212419,-1438386889,,
191714237,0.59832,1595649851,3923006,173351814,-1422298037,,
191764273,0.64836,1595699889,3973039,189329300,-1406370589,,
191814329,0.69841,1595749948,4023093,205314132,-1390435816,,
191865368,0.74945,1595800989,4074129,221612241,-1374188748,,
191915451,0.79953,1595851074,4124209,237605056,-1358246018,,
191965978,0.85006,1595901603,4174733,253739661,-1342161942,,
192017016,0.90110,1595952645,4225769,270037451,-1325915194,,
192067607,0.95169,1596003238,4276358,286192813,-1309810425,,
192118637,1.00272,1596054270,4327384,302488048,-1293566222,,
192169295,1.05338,1596104931,4378040,318664486,-1277440445,,
192219361,1.10344,1596154999,4428104,334652511,-1261502488,,
192269421,1.15350,1596205061,4478160,350637662,-1245567399,,
192319967,1.20405,1596255609,4528704,366778334,-1229477275,,
192370022,1.25411,1596305667,4578756,382762527,-1213543140,,
192420582,1.30466,1596356230,4629314,398907989,-1197448241,,
192470815,1.35490,1596406464,4679544,414948706,-1181457758,,
192521353,1.40544,1596457005,4730080,431086823,-1165370182,,
192571906,1.45599,1596507561,4780630,447230050,-1149277511,,
192622952,1.50703,1596558608,4831672,463529756,-1133028852,,
192673502,1.55758,1596609161,4882220,479672025,-1116937136,,
192724072,1.60816,1596659732,4932787,495820680,-1100839052,,
192775092,1.65918,1596710758,4983807,512113361,-1084597397,,
192826149,1.71023,1596761814,5034859,528416580,-1068345234,,
192876696,1.76078,1596812363,5085403,544557890,-1052254473,,
192927740,1.81182,1596863411,5136444,560857596,-1036005815,,
192977797,1.86188,1596913470,5186500,576842428,-1020071042,,
193028822,1.91291,1596964497,5237521,593136066,-1003828431,,
193079414,1.96350,1597015091,5288109,609291109,-987723982,,
193129928,2.01401,1597065618,5338631,625425074,-971640544,,
193180950,2.06503,1597116633,5389641,641714881,-955401752,,
193231522,2.11560,1597167218,5440221,657867368,-939299850,,
193282590,2.16667,1597218278,5491276,674171226,-923047052,,
193333384,2.21747,1597269074,5542067,690391096,-906877978,,
193384022,2.26810,1597319714,5592702,706561467,-890758247,,
193434663,2.31875,1597370357,5643340,722732157,-874638200,,
193485744,2.36983,1597421441,5694419,739043998,-858377443,,
193536336,2.42042,1597472035,5745008,755199680,-842272355,,
193587372,2.47146,1597523073,5796041,771496511,-826026562,,
193638377,2.52246,1597574081,5847044,787784082,-809789999,,
193688984,2.57307,1597624690,5897648,803944234,-793680456,,
193739992,2.62407,1597675700,5948653,820232444,-777443256,,
193790559,2.67464,1597726270,5999217,836380142,-761346128,,
193841602,2.72568,1597777314,6050257,852679209,-745098105,,
193891685,2.77577,1597827401,6100338,868672663,-729154738,,
193942220,2.82630,1597877938,6150870,884809822,-713068116,,
193992779,2.87686,1597928498,6201426,900954326,-696974172,,
194043352,2.92744,1597979074,6251997,917103940,-680875134,,
194093468,2.97755,1598029193,6302110,933107613,-664921580,,
194143984,3.02807,1598079710,6352634,949242217,-648837493,,
194194576,3.07866,1598130307,6403214,965394385,-632735922,,
194245668,3.12975,1598181411,6454314,981713252,-616468159,,
194296741,3.18082,1598232476,6505373,998018387,-600214089,,
194347340,3.23142,1598283077,6555968,1014175984,-584107093,,
194398138,3.28222,1598333876,6606764,1030397451,-567936425,,
194448621,3.33270,1598384362,6657244,1046517685,-551866677,,
194499179,3.38326,1598434923,6707800,1062662508,-535772415,,
194549785,3.43387,1598485531,6758402,1078822341,-519663190,,
194600333,3.48442,1598536082,6808948,1094963971,-503572111,,
194651344,3.53543,1598587094,6859956,1111253138,-487333956,,
194702386,3.58647,1598638138,6910995,1127552206,-471085932,,
194753468,3.63755,1598689224,6962075,1143864366,-454824858,,
194804517,3.68860,1598740274,7013121,1160165350,-438574924,,
194855543,3.73963,1598791304,7064144,1176462820,-422328484,,
194906142,3.79022,1598841904,7114740,1192616905,-406224999,,
194956663,3.84075,1598892428,7165260,1208750232,-390142196,,
195007702,3.89179,1598943470,7216296,1225048341,-373895129,,
195058299,3.94238,1598994068,7266889,1241204980,-357789088,,
195108801,3.99288,1599044573,7317388,1257331920,-341712653,,
195159846,4.04393,1599095621,7368432,1273632265,-325463356,,
195210398,4.09448,1599146175,7418981,1289774853,-309371322,,
195261017,4.14510,1599196795,7469596,1305938518,-293258277,,
195311535,4.19562,1599247316,7520112,1322070568,-277176748,,
195362114,4.24620,1599297898,7570688,1338221778,-261076120,,
195412698,4.29678,1599348484,7621269,1354374905,-244973579,,
195463259,4.34734,1599399048,7671828,1370520367,-228878681,,
195513801,4.39788,1599449592,7722368,1386660081,-212789511,,
195564317,4.44840,1599500109,7772880,1402790853,-196709256,,
195614931,4.49901,1599550727,7823491,1418953560,-180597167,,
195665788,4.54987,1599601585,7874346,1435193548,-164408037,,
195716310,4.60039,1599652111,7924865,1451326875,-148325236,,
195766868,4.65095,1599702670,7975420,1467471060,-132231610,,
195817009,4.70109,1599752814,8025559,1483483036,-116269778,,
195867536,4.75162,1599803344,8076084,1499617640,-100185704,,
195918585,4.80267,1599854395,8127130,1515918943,-83935452,,
195969133,4.85322,1599904945,8177674,1532059934,-67845011,,
196019685,4.90377,1599955499,8228224,1548202842,-51752657,,
196070672,4.95475,1600006488,8279208,1564484345,-35522143,,
196120824,5.00491,1600056643,8329357,1580499514,-19557129,,
196171444,5.05553,1600107266,8379976,1596664137,-3443129,,
196222477,5.10656,1600158301,8431005,1600157754,-547,,
196272513,5.15660,1600208339,8481038,1600207787,-552,,
196322589,5.20667,1600258418,8531113,1600257861,-557,,
196373212,5.25730,1600309043,8581732,1600308480,-563,,
196423811,5.30789,1600359644,8632328,1600359076,-568,,
196474351,5.35843,1600410186,8682875,1600409623,-563,,
196524965,5.40905,1600460803,8733478,1600460226,-577,,
196575146,5.45923,1600510986,8783655,1600510404,-582,,
196626150,5.51023,1600561992,8834655,1600561404,-588,,
196676834,5.56092,1600612679,8885339,1600612087,-592,,
196727902,5.61198,1600663749,8936403,1600663151,-598,,
196778936,5.66302,1600714786,8987434,1600714183,-603,,
196829974,5.71406,1600765826,9038469,1600765218,-608,,
196880534,5.76462,1600816389,9089027,1600815776,-613,,
196931627,5.81571,1600867483,9140117,1600866865,-618,,
196982670,5.86675,1600918529,9191157,1600917906,-623,,
197033720,5.91780,1600969582,9242205,1600968954,-628,,
197084754,5.96884,1601020618,9293236,1601019985,-633,,
197135795,6.01988,1601071662,9344274,1601071023,-639,,
197186866,6.07095,1601122734,9395342,1601122090,-644,,
197237782,6.12186,1601173653,9446256,1601173004,-649,,
197287948,6.17203,1601223822,9496419,1601223168,-654,,
197338817,6.22290,1601274693,9547285,1601274034,-659,,
197389190,6.27327,1601325068,9597655,1601324404,-664,,
197439830,6.32391,1601375711,9648293,1601375042,-669,,
197490374,6.37446,1601426256,9698834,1601425582,-674,,
197541448,6.42553,1601477333,9749906,1601476654,-679,,
197591830,6.47591,1601527718,9800285,1601527034,-684,,
197642418,6.52650,1601578308,9850871,1601577619,-689,,
197692514,6.57660,1601628406,9900963,1601627712,-694,,
197743101,6.62718,1601679007,9951559,1601678308,-699,,
197793655,6.67774,1601729552,10002099,1601728848,-704,,
197844193,6.72828,1601780092,10052634,1601779383,-709,,
197894824,6.77891,1601830726,10103263,1601830011,-715,,
197945415,6.82950,1601881319,10153852,1601880600,-719,,
197996146,6.88023,1601932053,10204579,1601931328,-725,,
198046679,6.93076,1601982588,10255109,1601981858,-730,,
198096867,6.98095,1602032778,10305296,1602032044,-734,,
198147292,7.03137,1602083206,10355717,1602082466,-740,,
198198310,7.08239,1602134225,10406732,1602133480,-745,,
198248851,7.13293,1602184768,10457271,1602184019,-749,,
198299461,7.18354,1602235393,10507890,1602234639,-754,,
198350524,7.23461,1602286446,10558938,1602285687,-759,,
198401026,7.28511,1602336951,10609437,1602336186,-765,,
198451619,7.33570,1602387547,10660029,1602386777,-770,,
198502665,7.38675,1602438595,10711072,1602437820,-775,,
198553281,7.43736,1602489213,10761685,1602488444,-769,,
198603895,7.48798,1602539829,10812296,1602539044,-785,,
198654703,7.53879,1602590640,10863101,1602589850,-790,,
198705281,7.58936,1602641220,10913676,1602640424,-796,,
198755402,7.63948,1602691344,10963795,1602690553,-791,,
198806451,7.69053,1602742394,11014841,1602741589,-805,,
198857214,7.74130,1602793161,11065601,1602792350,-811,,
198907824,7.79191,1602843773,11116208,1602842957,-816,,
198958616,7.84270,1602894567,11166998,1602893747,-820,,
199009663,7.89375,1602945616,11218042,1602944791,-825,,
199060195,7.94428,1602996151,11268571,1602995319,-832,,
199110749,7.99483,1603046707,11319122,1603045871,-836,,
199161796,8.04588,1603097756,11370167,1603096915,-841,,
199212333,8.09642,1603148297,11420702,1603147451,-846,,
199263242,8.14733,1603199207,11471608,1603198356,-851,,
199313976,8.19806,1603249943,11522339,1603249087,-856,,
199364475,8.24856,1603300445,11572835,1603299584,-861,,
199415226,8.29931,1603351199,11623583,1603350332,-867,,
199465416,8.34950,1603401391,11673770,1603400519,-872,,
199516438,8.40052,1603452414,11724790,1603451538,-876,,
199567310,8.45139,1603503290,11775659,1603502407,-883,,
199617894,8.50198,1603553876,11826240,1603552989,-887,,
199668539,8.55262,1603604522,11876883,1603603631,-891,,
199719082,8.60317,1603655068,11927423,1603654171,-897,,
199769803,8.65389,1603705792,11978141,1603704890,-902,,
199820417,8.70450,1603756408,12028752,1603755501,-907,,
199871041,8.75512,1603807035,12079374,1603806123,-912,,
199922112,8.80620,1603858108,12130442,1603857190,-918,,
199973056,8.85714,1603909054,12181383,1603908132,-922,,
200023617,8.90770,1603959618,12231943,1603958691,-927,,
200074175,8.95826,1604010177,12282497,1604009245,-932,,
200124572,9.00865,1604060578,12332891,1604059640,-938,,
200174633,9.05872,1604110641,12382949,1604109697,-944,,
200225676,9.10976,1604161686,12433990,1604160738,-948,,
200275750,9.15983,1604211763,12484062,1604210810,-953,,
200326312,9.21040,1604262327,12534620,1604261369,-958,,
200376797,9.26088,1604312814,12585103,1604311852,-962,,
200427070,9.31115,1604363090,12635374,1604362122,-968,,
200477668,9.36175,1604413690,12685969,1604412717,-973,,
200528216,9.41230,1604464240,12736514,1604463263,-977,,
200578756,9.46284,1604514783,12787051,1604513799,-984,,
200629814,9.51390,1604565843,12838106,1604564855,-988,,
200680837,9.56492,1604616867,12889126,1604615874,-993,,
200731871,9.61595,1604667905,12940158,1604666907,-998,,
200782020,9.66610,1604718056,12990304,1604717053,-1003,,
200832176,9.71626,1604768213,13040457,1604767205,-1008,,
200883026,9.76711,1604819066,13091305,1604818053,-1013,,
200933195,9.81728,1604869237,13141471,1604868219,-1018,,
200984206,9.86829,1604920251,13192479,1604919227,-1024,,
201034732,9.91882,1604970780,13243003,1604969751,-1029,,
201085755,9.96984,1605021804,13294023,1605020771,-1033,,
201136341,10.02042,1605072393,13344606,1605071355,-1038,,
201187356,10.07144,1605123410,13395617,1605122366,-1044,,
201238516,10.12260,1605174573,13446776,1605173525,-1048,,
201288947,10.17303,1605225007,13497205,1605223953,-1054,,
201338989,10.22307,1605275050,13547243,1605273992,-1058,,
201389284,10.27337,1605325348,13597535,1605324284,-1064,,
201439859,10.32394,1605375926,13648108,1605374857,-1069,,
201489941,10.37402,1605426010,13698188,1605424936,-1074,,
201540042,10.42413,1605476113,13748285,1605475033,-1080,,
201591010,10.47509,1605527083,13799251,1605525999,-1084,,
201641559,10.52564,1605577634,13849797,1605576545,-1089,,
201692607,10.57669,1605628685,13900842,1605627591,-1094,,
201743058,10.62714,1605679139,13951292,1605678040,-1099,,
201793650,10.67773,1605729732,14001880,1605728628,-1104,,
201844643,10.72873,1605780729,14052871,1605779620,-1109,,
201894732,10.77881,1605830820,14102956,1605829705,-1115,,
201944812,10.82889,1605880901,14153034,1605879782,-1119,,
201995890,10.87997,1605931982,14204109,1605930857,-1125,,
202046892,10.93098,1605982987,14255109,1605981857,-1130,,
202097970,10.98205,1606034067,14306184,1606032933,-1134,,
202149028,11.03311,1606085128,14357239,1606083988,-1140,,
202199302,11.08338,1606135404,14407510,1606134259,-1145,,
202249901,11.13398,1606186005,14458106,1606184855,-1150,,
202300492,11.18458,1606236599,14508696,1606235444,-1155,,
202351075,11.23516,1606287184,14559275,1606286023,-1161,,
202401399,11.28548,1606337509,14609596,1606336344,-1165,,
202451959,11.33604,1606388073,14660155,1606386904,-1169,,
202502937,11.38702,1606439053,14711130,1606437878,-1175,,
202553535,11.43762,1606489653,14761725,1606488473,-1180,,
202604166,11.48825,1606540286,14812352,1606539100,-1186,,
202654735,11.53882,1606590858,14862919,1606589668,-1190,,
202704827,11.58891,1606640952,14913008,1606639757,-1195,,
202755733,11.63982,1606691860,14963911,1606690659,-1201,,
202806217,11.69030,1606742347,15014393,1606741142,-1205,,
202856368,11.74045,1606792501,15064541,1606791289,-1212,,
202907352,11.79143,1606843487,15115523,1606842271,-1216,,
202958408,11.84249,1606894544,15166576,1606893325,-1219,,
203008610,11.89269,1606944749,15216775,1606943523,-1226,,
203059633,11.94372,1606995774,15267795,1606994543,-1231,,
203110213,11.99430,1607046357,15318372,1607045121,-1236,,
203160366,12.04445,1607096513,15368523,1607095271,-1242,,
203210944,12.09503,1607147093,15419098,1607145847,-1246,,
203261956,12.14604,1607198107,15470108,1607196856,-1251,,
203312134,12.19622,1607248288,15520284,1607247032,-1256,,
203363183,12.24727,1607299338,15571329,1607298077,-1261,,
203413320,12.29740,1607349477,15621463,1607348211,-1266,,
203463436,12.34752,1607399597,15671578,1607398326,-1271,,
203514355,12.39844,1607450518,15722493,1607449241,-1277,,
203564968,12.44905,1607501132,15773103,1607499851,-1281,,
203615997,12.50008,1607552164,15824129,1607550888,-1276,,
203667075,12.55116,1607603245,15875206,1607601954,-1291,,
203718093,12.60218,1607654266,15926220,1607652969,-1297,,
203769135,12.65322,1607705310,15977260,1607704008,-1302,,
203820191,12.70427,1607756368,16028312,1607755061,-1307,,
203871240,12.75532,1607807420,16079359,1607806108,-1312,,
203921811,12.80589,1607857993,16129928,1607856676,-1317,,
203972820,12.85690,1607909004,16180933,1607907682,-1322,,
204023433,12.90752,1607959619,16231544,1607958292,-1327,,
204074434,12.95852,1608010623,16282542,1608009291,-1332,,
204125013,13.00910,1608061204,16333118,1608059866,-1338,,
204176011,13.06009,1608112204,16384113,1608110861,-1343,,
204226133,13.11022,1608162329,16434233,1608160982,-1347,,
204276665,13.16075,1608212864,16484762,1608211510,-1354,,
204327714,13.21180,1608263914,16535808,1608262556,-1358,,
204378469,13.26255,1608314672,16586561,1608313310,-1362,,
204428669,13.31275,1608364875,16636758,1608363507,-1368,,
204479400,13.36348,1608415607,16687486,1608414234,-1373,,
204529518,13.41360,1608465728,16737602,1608464350,-1378,,
204580128,13.46421,1608516341,16788210,1608514958,-1383,,
204630711,13.51479,1608566926,16838790,1608565538,-1388,,
204681762,13.56584,1608617979,16889837,1608616585,-1394,,
204732811,13.61689,1608669031,16940884,1608667633,-1398,,
204783879,13.66796,1608720101,16991950,1608718698,-1403,,
204834930,13.71901,1608771154,17042997,1608769745,-1409,,
204885915,13.77000,1608822142,17093979,1608820728,-1414,,
204936484,13.82057,1608872713,17144547,1608871295,-1418,,
204986909,13.87099,1608923140,17194968,1608921716,-1424,,
205037914,13.92200,1608974148,17245970,1608972719,-1429,,
205088510,13.97259,1609024745,17296564,1609023312,-1433,,
205139055,14.02314,1609075293,17347106,1609073854,-1439,,
205190063,14.07415,1609126303,17398111,1609124859,-1444,,
205240656,14.12474,1609176899,17448702,1609175450,-1449,,
205291666,14.17575,1609227912,17499709,1609226458,-1454,,
205341976,14.22606,1609278224,17550017,1609276765,-1459,,
205392216,14.27630,1609328465,17600253,1609327001,-1464,,
205442274,14.32636,1609378526,17650309,1609377057,-1469,,
205493345,14.37743,1609429599,17701377,1609428125,-1474,,
205543917,14.42800,1609480175,17751947,1609478695,-1480,,
205594788,14.47887,1609531048,17802815,1609529563,-1485,,
205644893,14.52898,1609581155,17852917,1609579666,-1489,,
205695393,14.57948,1609631658,17903415,1609630163,-1495,,
205746445,14.63053,1609682711,17954463,1609681211,-1500,,
205796523,14.68061,1609732792,18004539,1609731288,-1504,,
205847068,14.73115,1609783339,18055081,1609781829,-1510,,
205897262,14.78134,1609833535,18105272,1609832020,-1515,,
205947852,14.83193,1609884128,18155861,1609882609,-1519,,
205998881,14.88296,1609935159,18206886,1609933634,-1525,,
206049429,14.93351,1609985710,18257432,1609984180,-1530,,
206099968,14.98405,1610036251,18307967,1610034716,-1535,,
206151023,15.03511,1610087309,18359021,1610085769,-1540,,
206202052,15.08614,1610138340,18410047,1610136795,-1545,,
206252624,15.13671,1610188914,18460615,1610187364,-1550,,
206303695,15.18778,1610239988,18511685,1610238433,-1555,,
206354223,15.23831,1610290529,18562221,1610288970,-1559,,
206405266,15.28935,1610341564,18613249,1610339998,-1566,,
206456298,15.34038,1610392597,18664278,1610391026,-1571,,
206506879,15.39096,1610443182,18714858,1610441607,-1575,,
206557938,15.44202,1610494242,18765913,1610492662,-1580,,
206608956,15.49304,1610545263,18816928,1610543677,-1586,,
206659505,15.54359,1610595814,18867475,1610594224,-1590,,
206710053,15.59414,1610646365,18918020,1610644769,-1596,,
206761133,15.64522,1610697447,18969097,1610695846,-1601,,
206811624,15.69571,1610747940,19019586,1610746334,-1606,,
206861685,15.74577,1610798004,19069644,1610796392,-1612,,
206911731,15.79581,1610848052,19119687,1610846435,-1617,,
206962230,15.84631,1610898553,19170183,1610896932,-1621,,
207012872,15.89696,1610949197,19220823,1610947571,-1626,,
207063098,15.94718,1610999425,19271046,1610997794,-1631,,
207113677,15.99776,1611050007,19321622,1611048370,-1637,,
207164701,16.04878,1611101034,19372644,1611099393,-1641,,
207215273,16.09936,1611151608,19423213,1611149962,-1646,,
207265858,16.14994,1611202196,19473795,1611200544,-1652,,
207316918,16.20100,1611253258,19524852,1611251601,-1657,,
207367552,16.25164,1611303894,19575484,1611302232,-1662,,
207418161,16.30224,1611354506,19626090,1611352838,-1668,,
207468772,16.35286,1611405119,19676698,1611403447,-1672,,
