Server clock before sync: 38
Synchronizing server_clock...
[1/51] [2/51] [3/51] [4/51] [5/51] [6/51] [7/51] [8/51] [9/51] [10/51] 
[11/51] [12/51] [13/51] [14/51] [15/51] [16/51] [17/51] [18/51] [19/51] [20/51] 
[21/51] [22/51] [23/51] [24/51] [25/51] [26/51] [27/51] [28/51] [29/51] [30/51] 
[31/51] [32/51] [33/51] [34/51] [35/51] [36/51] [37/51] [38/51] [39/51] [40/51] 
[41/51] [42/51] [43/51] [44/51] [45/51] [46/51] [47/51] [48/51] [49/51] [50/51] 
Best Server Sync RTT: 66023, Worst Server Sync RTT: 79200
Average RTT: 66695.300000
Est Server Time: 1595066465, Computed Server Time offset: 1591731324
Server clock after sync: 1595066466

====== SIMULATION METADATA     =====
Server IP: 128.83.139.94, Port: 8050
Server Drift: 50.00 PPM, Client VHC Drift: -50.00 PPM
Relative Drift Weight: -3.50
Local Server Time Error: 33011
Rapport Period: 40000000
Amortization Period: 5000000
Simulation runtime: 1800 seconds
Simulation runtime: 1800000000 usec, 
 Start: 191130900, End: 1991130900
====== SIMULATION OUTPUT START =====
Current Real Time,Real Time Elapsed (sec),Local Server Time,Hardware Clock Time,Software Clock Time,Error,Remote Est Time,
191131063,0.00016,1595066629,3334973,3334973,-1591731656,,
191197362,0.06646,1595132931,3401268,3401268,-1591731663,1595132793,
191222671,0.09177,1595158242,3426576,11483921,-1583674321,,
191273733,0.14283,1595209307,3477636,27789424,-1567419883,,
191324345,0.19345,1595259921,3528245,43951221,-1551308700,,
191374918,0.24402,1595310496,3578815,60100883,-1535209613,,
191425951,0.29505,1595361532,3629846,76397125,-1518964407,,
191477005,0.34610,1595412587,3680896,92699754,-1502712833,,
191527548,0.39665,1595463134,3731436,108839836,-1486623298,,
191578096,0.44720,1595513684,3781982,124981514,-1470532170,,
191628213,0.49731,1595563802,3832096,140984916,-1454578886,,
191678707,0.54781,1595614300,3882588,157109349,-1438504951,,
191729252,0.59835,1595664847,3933130,173249750,-1422415097,,
191780303,0.64940,1595715900,3984178,189552060,-1406163840,,
191830837,0.69994,1595766436,4034709,205688629,-1390077807,,
191881396,0.75050,1595816998,4085265,221833500,-1373983498,,
191932445,0.80154,1595868049,4136312,238135171,-1357732878,,
191982991,0.85209,1595918598,4186855,254275891,-1341642707,,
192034032,0.90313,1595969641,4237894,270575008,-1325394633,,
192084127,0.95323,1596019738,4287986,286572022,-1309447716,,
192135140,1.00424,1596070754,4338996,302861877,-1293208877,,
192185347,1.05445,1596120963,4389200,318894339,-1277226624,,
192235890,1.10499,1596171508,4439740,335034101,-1261137407,,
192286422,1.15552,1596222043,4490270,351170670,-1245051373,,
192337495,1.20660,1596273119,4541342,367480005,-1228793114,,
192388549,1.25765,1596324174,4592391,383782315,-1212541859,,
192439422,1.30852,1596375050,4643263,400028100,-1196346950,,
192490316,1.35942,1596425946,4694154,416279953,-1180145993,,
192540863,1.40996,1596476496,4744697,432420993,-1164055503,,
192590956,1.46006,1596526591,4794787,448416730,-1148109861,,
192642008,1.51111,1596577645,4845837,464719678,-1131857967,,
192693026,1.56213,1596628666,4896853,481011130,-1115617536,,
192744060,1.61316,1596679702,4947884,497307691,-1099372011,,
192794119,1.66322,1596729762,4997940,513292890,-1083436872,,
192844676,1.71378,1596780323,5048494,529437442,-1067342881,,
192895219,1.76432,1596830868,5099034,545577204,-1051253664,,
192945763,1.81486,1596881413,5149575,561716967,-1035164446,,
192996327,1.86543,1596931991,5200147,577866948,-1019065043,,
193047397,1.91650,1596983052,5251204,594171812,-1002811240,,
193097959,1.96706,1597033617,5301763,610317642,-986715975,,
193148468,2.01757,1597084129,5352270,626447185,-970636944,,
193199489,2.06859,1597135152,5403289,642739595,-954395557,,
193250074,2.11917,1597185740,5453870,658892770,-938292970,,
193301122,2.17022,1597236790,5504916,675193802,-922042988,,
193351435,2.22053,1597287104,5555225,691260115,-906026989,,
193402510,2.27161,1597338183,5606299,707573601,-889764582,,
193453166,2.32227,1597388841,5656951,723745937,-873642904,,
193503303,2.37240,1597438980,5707086,739756364,-857682616,,
193554330,2.42343,1597490010,5758111,756054203,-841435807,,
193604900,2.47400,1597540582,5808678,772199075,-825341507,,
193655954,2.52505,1597591638,5859728,788501703,-809089935,,
193706502,2.57560,1597642189,5910274,804643701,-792998488,,
193757550,2.62665,1597693239,5961320,820944733,-776748506,,
193808598,2.67770,1597744290,6012364,837245765,-760498525,,
193859669,2.72877,1597795363,6063434,853554462,-744240901,,
193911371,2.78047,1597847067,6115133,870064347,-727782720,,
193961745,2.83085,1597897443,6165503,886149820,-711747623,,
194012334,2.88143,1597948034,6216089,902304272,-695643762,,
194062888,2.93199,1597998590,6266641,918447867,-679550723,,
194113463,2.98256,1598049169,6317213,934597848,-663451321,,
194164039,3.03314,1598099747,6367786,950748468,-647351279,,
194214634,3.08373,1598150344,6418379,966904836,-631245508,,
194265665,3.13476,1598201377,6469407,983200440,-615000937,,
194316255,3.18535,1598251969,6519994,999355530,-598896439,,
194366540,3.23564,1598302258,6570276,1015412901,-582889357,,
194417021,3.28612,1598352741,6620755,1031533184,-566819557,,
194467172,3.33627,1598402893,6670914,1047550956,-550851937,,
194518209,3.38731,1598453933,6721937,1063844962,-534608971,,
194568756,3.43786,1598504483,6772483,1079986640,-518517843,,
194619791,3.48889,1598555520,6823515,1096283521,-502271999,,
194669853,3.53895,1598605585,6873573,1112269678,-486335907,,
194720412,3.58951,1598656146,6924141,1128418062,-470238084,,
194770980,3.64008,1598706715,6974695,1144562296,-454144419,,
194822029,3.69113,1598757767,7025741,1160863647,-437894120,,
194873077,3.74218,1598808817,7076786,1177164679,-421644138,,
194923654,3.79275,1598859396,7127361,1193315619,-405543777,,
194974667,3.84377,1598910413,7178372,1209605793,-389304620,,
195025221,3.89432,1598960969,7228922,1225748749,-373212220,,
195075755,3.94486,1599011506,7279455,1241886276,-357125230,,
195125841,3.99494,1599061594,7329538,1257880416,-341181178,,
195176913,4.04601,1599112668,7380606,1274188793,-324923875,,
195227924,4.09702,1599163682,7431615,1290478009,-308685673,,
195278506,4.14761,1599214266,7482194,1306630546,-292583720,,
195329553,4.19865,1599265315,7533238,1322931258,-276334057,,
195379950,4.24905,1599315715,7583633,1339024396,-260291319,,
195430471,4.29957,1599366237,7634151,1355157133,-244209104,,
195480785,4.34988,1599416554,7684462,1371224084,-228192470,,
195531741,4.40084,1599467513,7735415,1387495736,-211971777,,
195581908,4.45101,1599517682,7785580,1403515424,-196002258,,
195632451,4.50155,1599568227,7836120,1419655506,-179912721,,
195683031,4.55213,1599618810,7886698,1435807084,-163811726,,
195733436,4.60254,1599669216,7937099,1451902457,-147766759,,
195783959,4.65306,1599719742,7987620,1468036471,-131683271,,
195834492,4.70359,1599770278,8038151,1484173040,-115597238,,
195885554,4.75465,1599821342,8089210,1500478543,-99342799,,
195936600,4.80570,1599872391,8140252,1516778617,-83093774,,
195987151,4.85625,1599922944,8190801,1532921573,-67001371,,
196037699,4.90680,1599973494,8241346,1549062613,-50910881,,
196088675,4.95777,1600024473,8292319,1565340971,-34683502,,
196138846,5.00795,1600074646,8342488,1581362256,-18712390,,
196188988,5.05809,1600124790,8392627,1597373960,-2750830,,
196239483,5.10858,1600175288,8443119,1600174646,-642,,
196290043,5.15914,1600225850,8493677,1600225203,-647,,
196340184,5.20928,1600275992,8543815,1600275341,-651,,
196391192,5.26029,1600327003,8594819,1600326346,-657,,
196441562,5.31066,1600377376,8645187,1600376714,-662,,
196492419,5.36152,1600428235,8696042,1600427569,-666,,
196542553,5.41165,1600478371,8746173,1600477700,-671,,
196593164,5.46226,1600528984,8796781,1600528307,-677,,
196643290,5.51239,1600579113,8846906,1600578432,-681,,
196693875,5.56297,1600629701,8897487,1600629014,-687,,
196744941,5.61404,1600680769,8948550,1600680077,-692,,
196795965,5.66507,1600731796,8999572,1600731098,-698,,
196846517,5.71562,1600782350,9050121,1600781648,-702,,
196897559,5.76666,1600833394,9101161,1600832687,-707,,
196948643,5.81774,1600884480,9152241,1600883767,-713,,
196999691,5.86879,1600935530,9203287,1600934813,-717,,
197050740,5.91984,1600986581,9254333,1600985859,-722,,
197101786,5.97089,1601037630,9305376,1601036902,-728,,
197152838,6.02194,1601088685,9356426,1601087952,-733,,
197203850,6.07295,1601139699,9407435,1601138962,-737,,
197254829,6.12393,1601190680,9458411,1601189938,-742,,
197305424,6.17452,1601241278,9509003,1601240529,-749,,
197356099,6.22520,1601291956,9559676,1601291213,-743,,
197406710,6.27581,1601342568,9610284,1601341810,-758,,
197456901,6.32600,1601392762,9660472,1601391999,-763,,
197507902,6.37700,1601443766,9711471,1601442998,-768,,
197558793,6.42789,1601494659,9762359,1601493886,-773,,
197609400,6.47850,1601545268,9812963,1601544490,-778,,
197659979,6.52908,1601595850,9863540,1601595066,-784,,
197710518,6.57962,1601646391,9914077,1601645603,-788,,
197761141,6.63024,1601697016,9964696,1601696223,-793,,
197811755,6.68086,1601747633,10015308,1601746834,-799,,
197862294,6.73139,1601798173,10065843,1601797369,-804,,
197913342,6.78244,1601849224,10116889,1601848415,-809,,
197963717,6.83282,1601899602,10167261,1601898788,-814,,
198014158,6.88326,1601950044,10217699,1601949225,-819,,
198064708,6.93381,1602000597,10268248,1601999774,-823,,
198115383,6.98448,1602051274,10318919,1602050445,-829,,
198166307,7.03541,1602102201,10369840,1602101366,-835,,
198217314,7.08641,1602153210,10420844,1602152370,-840,,
198267465,7.13657,1602203364,10470993,1602202520,-844,,
198318480,7.18758,1602254381,10522005,1602253531,-850,,
198368939,7.23804,1602304847,10572466,1602303992,-855,,
198419515,7.28862,1602355420,10623035,1602354562,-858,,
198470133,7.33923,1602406041,10673650,1602405177,-864,,
198520793,7.38989,1602456703,10724307,1602455833,-870,,
198571822,7.44092,1602507735,10775333,1602506859,-876,,
198622644,7.49174,1602558559,10826154,1602557680,-879,,
198673730,7.54283,1602609648,10877236,1602608762,-886,,
198724289,7.59339,1602660209,10927793,1602659319,-890,,
198774907,7.64401,1602710830,10978408,1602709935,-895,,
198825160,7.69426,1602761084,11028658,1602760184,-900,,
198876229,7.74533,1602812156,11079725,1602811251,-905,,
198926586,7.79569,1602862515,11130079,1602861605,-910,,
198977613,7.84671,1602913557,11181115,1602912641,-916,,
199028168,7.89727,1602964102,11231655,1602963181,-921,,
199079199,7.94830,1603015135,11282683,1603014209,-926,,
199130260,7.99936,1603066199,11333742,1603065269,-930,,
199181267,8.05037,1603117208,11384746,1603116273,-935,,
199231883,8.10098,1603167826,11435359,1603166885,-941,,
199282446,8.15155,1603218392,11485919,1603217446,-946,,
199333461,8.20256,1603269409,11536933,1603268459,-950,,
199384198,8.25330,1603320149,11587666,1603319193,-956,,
199435315,8.30442,1603371268,11638781,1603370307,-961,,
199485968,8.35507,1603421924,11689431,1603420957,-967,,
199536785,8.40588,1603472743,11740245,1603471772,-971,,
199587577,8.45668,1603523537,11791034,1603522561,-976,,
199638448,8.50755,1603574411,11841902,1603573429,-982,,
199689029,8.55813,1603624994,11892481,1603624008,-986,,
199739296,8.60840,1603675263,11942745,1603674272,-991,,
199789836,8.65894,1603725805,11993282,1603724808,-997,,
199840025,8.70913,1603775997,12043469,1603774996,-1001,,
199890597,8.75970,1603826571,12094039,1603825565,-1006,,
199941533,8.81063,1603877510,12144971,1603876498,-1012,,
199992125,8.86122,1603928114,12195572,1603927099,-1015,,
200043147,8.91225,1603979127,12246580,1603978106,-1021,,
200093568,8.96267,1604029552,12296998,1604028524,-1028,,
200144593,9.01369,1604080579,12348021,1604079547,-1032,,
200194640,9.06374,1604130628,12398065,1604129591,-1037,,
200244719,9.11382,1604180710,12448141,1604179668,-1042,,
200295301,9.16440,1604231294,12498720,1604230247,-1047,,
200346227,9.21533,1604282222,12549644,1604281170,-1052,,
200396457,9.26556,1604332454,12599871,1604331397,-1057,,
200446668,9.31577,1604382667,12650079,1604381605,-1062,,
200497677,9.36678,1604433680,12701085,1604432612,-1068,,
200548232,9.41733,1604484236,12751638,1604483164,-1072,,
200598806,9.46791,1604534813,12802209,1604533736,-1077,,
200649809,9.51891,1604585819,12853209,1604584736,-1083,,
200700827,9.56993,1604636839,12904225,1604635751,-1088,,
200750970,9.62007,1604686984,12954366,1604685892,-1092,,
200801561,9.67066,1604737577,13004953,1604736479,-1098,,
200852165,9.72127,1604788183,13055554,1604787080,-1103,,
200902639,9.77174,1604838659,13106026,1604837552,-1107,,
200953205,9.82231,1604889228,13156589,1604888115,-1113,,
201004195,9.87330,1604940221,13207576,1604939102,-1119,,
201054777,9.92388,1604990806,13258157,1604989683,-1123,,
201105323,9.97442,1605041353,13308699,1605040225,-1128,,
201156339,10.02544,1605092372,13359712,1605091239,-1133,,
201206874,10.07597,1605142910,13410246,1605141772,-1138,,
201257916,10.12702,1605193955,13461286,1605192812,-1143,,
201309890,10.17899,1605245931,13513257,1605244784,-1147,,
201360236,10.22934,1605296278,13563597,1605295124,-1154,,
201410334,10.27943,1605346379,13613695,1605345222,-1157,,
201460924,10.33002,1605396971,13664281,1605395808,-1163,,
201511509,10.38061,1605447559,13714864,1605446390,-1169,,
201561976,10.43108,1605498027,13765328,1605496854,-1173,,
201612030,10.48113,1605548084,13815380,1605546906,-1178,,
201663079,10.53218,1605599136,13866425,1605597952,-1184,,
201713731,10.58283,1605649790,13917075,1605648601,-1189,,
201764553,10.63365,1605700614,13967894,1605699421,-1193,,
201814672,10.68377,1605750736,14018010,1605749537,-1199,,
201865230,10.73433,1605801296,14068566,1605800092,-1204,,
201915771,10.78487,1605851840,14119104,1605850630,-1210,,
201966877,10.83598,1605902948,14170208,1605901734,-1214,,
202017915,10.88701,1605953988,14221242,1605952769,-1219,,
202068904,10.93800,1606004980,14272229,1606003755,-1225,,
202120012,10.98911,1606056090,14323334,1606054861,-1229,,
202170650,11.03975,1606106730,14373969,1606105495,-1235,,
202221307,11.09041,1606157390,14424624,1606156150,-1240,,
202271938,11.14104,1606208023,14475253,1606206779,-1244,,
202323014,11.19211,1606259101,14526325,1606257851,-1250,,
202373644,11.24274,1606309734,14576952,1606308479,-1255,,
202424386,11.29349,1606360478,14627691,1606359218,-1260,,
202474878,11.34398,1606410973,14678181,1606409708,-1265,,
202525920,11.39502,1606462017,14729221,1606460747,-1270,,
202576074,11.44517,1606512173,14779371,1606510898,-1275,,
202626206,11.49531,1606562307,14829501,1606561027,-1280,,
202676799,11.54590,1606612902,14880091,1606611617,-1285,,
202727633,11.59673,1606663738,14930922,1606662448,-1290,,
202778219,11.64732,1606714328,14981505,1606713032,-1296,,
202829262,11.69836,1606765373,15032546,1606764073,-1300,,
202879852,11.74895,1606815965,15083133,1606814660,-1305,,
202930869,11.79997,1606866985,15134148,1606865674,-1311,,
202981441,11.85054,1606917559,15184718,1606916244,-1315,,
203032092,11.90119,1606968211,15235365,1606966891,-1320,,
203083141,11.95224,1607019274,15286422,1607017949,-1325,,
203133295,12.00239,1607069420,15336562,1607068089,-1331,,
203183890,12.05299,1607120017,15387155,1607118681,-1336,,
203234529,12.10363,1607170670,15437803,1607169330,-1340,,
203285094,12.15419,1607221226,15488353,1607219880,-1346,,
203335663,12.20476,1607271798,15538920,1607270447,-1351,,
203386265,12.25536,1607322402,15589519,1607321045,-1357,,
203436377,12.30548,1607372516,15639629,1607371156,-1360,,
203487269,12.35637,1607423411,15690519,1607422045,-1366,,
203537419,12.40652,1607473563,15740675,1607472202,-1361,,
203588494,12.45759,1607524640,15791737,1607523264,-1376,,
203639553,12.50865,1607575702,15842794,1607574320,-1382,,
203690569,12.55967,1607626720,15893807,1607625334,-1386,,
203741619,12.61072,1607677772,15944854,1607676381,-1391,,
203792664,12.66176,1607728820,15995896,1607727423,-1397,,
203843707,12.71281,1607779865,16046936,1607778463,-1402,,
203894764,12.76386,1607830924,16097991,1607829517,-1407,,
203945813,12.81491,1607881976,16149037,1607880564,-1412,,
203996362,12.86546,1607932526,16199583,1607931109,-1417,,
204047401,12.91650,1607983569,16250620,1607982147,-1422,,
204098468,12.96757,1608034638,16301685,1608033211,-1427,,
204149509,13.01861,1608085681,16352722,1608084249,-1432,,
204200068,13.06917,1608136242,16403278,1608134804,-1438,,
204250606,13.11971,1608186783,16453815,1608185341,-1442,,
204300700,13.16980,1608236879,16503905,1608235431,-1448,,
204351490,13.22059,1608287672,16554693,1608286220,-1452,,
204402131,13.27123,1608338314,16605331,1608336857,-1457,,
204452190,13.32129,1608388377,16655388,1608386915,-1462,,
204502435,13.37153,1608438624,16705630,1608437156,-1468,,
204552598,13.42170,1608488789,16755791,1608487318,-1471,,
204603648,13.47275,1608539842,16806838,1608538364,-1478,,
204654194,13.52329,1608590390,16857381,1608588907,-1483,,
204704782,13.57388,1608640980,16907965,1608639492,-1488,,
204755330,13.62443,1608691540,16958521,1608690048,-1492,,
204806404,13.67550,1608742606,17009581,1608741108,-1498,,
204857388,13.72649,1608793593,17060563,1608792090,-1503,,
204907949,13.77705,1608844156,17111121,1608842648,-1508,,
204958098,13.82720,1608894307,17161268,1608892794,-1513,,
205008933,13.87803,1608945145,17212100,1608943627,-1518,,
205059960,13.92906,1608996185,17263135,1608994661,-1524,,
205110998,13.98010,1609047214,17314160,1609045686,-1528,,
205162085,14.03119,1609098305,17365244,1609096771,-1534,,
205212621,14.08172,1609148844,17415778,1609147305,-1539,,
205263688,14.13279,1609199912,17466841,1609198368,-1544,,
205314690,14.18379,1609250917,17517841,1609249368,-1549,,
205365078,14.23418,1609301307,17568227,1609299753,-1554,,
205415768,14.28487,1609352004,17618919,1609350445,-1559,,
205466801,14.33590,1609403046,17669956,1609401482,-1564,,
205517844,14.38694,1609454080,17720985,1609452511,-1569,,
205568468,14.43757,1609504706,17771606,1609503132,-1574,,
205618852,14.48795,1609555093,17821987,1609553513,-1580,,
205669486,14.53859,1609605729,17872618,1609604145,-1584,,
205720432,14.58953,1609656677,17923562,1609655088,-1589,,
205770997,14.64010,1609707245,17974124,1609705650,-1595,,
205821543,14.69064,1609757793,18024667,1609756194,-1599,,
205871609,14.74071,1609807862,18074730,1609806257,-1605,,
205922128,14.79123,1609858395,18125258,1609856785,-1610,,
205972877,14.84198,1609909134,18175993,1609907520,-1614,,
206023868,14.89297,1609960128,18226982,1609958508,-1620,,
206074436,14.94354,1610010698,18277546,1610009073,-1625,,
206125481,14.99458,1610061744,18328587,1610060114,-1630,,
206176524,15.04562,1610112791,18379630,1610111156,-1635,,
206227083,15.09618,1610163352,18430185,1610161712,-1640,,
206278185,15.14729,1610214456,18481285,1610212811,-1645,,
206329195,15.19829,1610265469,18532291,1610263818,-1651,,
206380232,15.24933,1610316508,18583326,1610314853,-1655,,
206431273,15.30037,1610367552,18634364,1610365891,-1661,,
206481345,15.35045,1610417637,18684444,1610415971,-1666,,
206532412,15.40151,1610468694,18735498,1610467024,-1670,,
206583437,15.45254,1610519723,18786520,1610518047,-1676,,
206634488,15.50359,1610570776,18837568,1610569094,-1682,,
206685529,15.55463,1610621818,18888606,1610620133,-1685,,
206736588,15.60569,1610672880,18939663,1610671189,-1691,,
206787613,15.65671,1610723908,18990686,1610722212,-1696,,
206838160,15.70726,1610774457,19041229,1610772756,-1701,,
206888209,15.75731,1610824509,19091276,1610822803,-1706,,
206938969,15.80807,1610875270,19142033,1610873560,-1710,,
206989460,15.85856,1610925763,19192521,1610924047,-1716,,
207040044,15.90914,1610976351,19243103,1610974629,-1722,,
207090617,15.95972,1611026926,19293674,1611025200,-1726,,
207141207,16.01031,1611077519,19344260,1611075786,-1733,,
207192206,16.06131,1611128520,19395256,1611126782,-1738,,
207242802,16.11190,1611179118,19445850,1611177376,-1742,,
207293395,16.16249,1611229714,19496440,1611227966,-1748,,
207344008,16.21311,1611280329,19547050,1611278577,-1752,,
207394557,16.26366,1611330879,19597596,1611329123,-1756,,
207444691,16.31379,1611381017,19647728,1611379255,-1762,,
