Server clock before sync: 39
Synchronizing server_clock...
[1/51] [2/51] [3/51] [4/51] [5/51] [6/51] [7/51] [8/51] [9/51] [10/51] 
[11/51] [12/51] [13/51] [14/51] [15/51] [16/51] [17/51] [18/51] [19/51] [20/51] 
[21/51] [22/51] [23/51] [24/51] [25/51] [26/51] [27/51] [28/51] [29/51] [30/51] 
[31/51] [32/51] [33/51] [34/51] [35/51] [36/51] [37/51] [38/51] [39/51] [40/51] 
[41/51] [42/51] [43/51] [44/51] [45/51] [46/51] [47/51] [48/51] [49/51] [50/51] 
Best Server Sync RTT: 234756, Worst Server Sync RTT: 237175
Average RTT: 235137.460000
Est Server Time: 15929949650, Computed Server Time offset: 15918192444
Server clock after sync: 15929949651

====== SIMULATION METADATA     =====
Server IP: 128.83.139.94, Port: 8050
Server Drift: 50.00 PPM, Client VHC Drift: -50.00 PPM
Relative Drift Weight: -3.50
Local Server Time Error: 117378
Rapport Period: 20000000
Amortization Period: 5000000
Simulation runtime: 1800 seconds
Simulation runtime: 1800000000 usec, 
 Start: 14525343993, End: 16325343993
====== SIMULATION OUTPUT START =====
Current Real Time,Real Time Elapsed (sec),Local Server Time,Hardware Clock Time,Software Clock Time,Error,Remote Est Time,
14525344120,0.00013,15929949779,11756161,11756161,-15918193618,,
14525579301,0.23531,15930184971,11991329,11991329,-15918193642,15930184959,
14525604731,0.26074,15930210403,12016758,92983059,-15837227344,,
14525655297,0.31130,15930260970,12067321,254004762,-15676256208,,
14525705859,0.36187,15930311536,12117881,415023281,-15515288255,,
14525756491,0.41250,15930362169,12168510,576255171,-15354106998,,
14525807540,0.46355,15930413221,12219556,738821424,-15191591797,,
14525857651,0.51366,15930463335,12269665,898400486,-15032062849,,
14525907763,0.56377,15930513449,12319774,1057979548,-14872533901,,
14525958799,0.61481,15930564487,12370808,1220501216,-14710063271,,
14526008862,0.66487,15930614553,12420867,1379924230,-14550690323,,
14526058986,0.71499,15930664679,12470990,1539544693,-14391119986,,
14526109131,0.76514,15930714826,12521132,1699228848,-14231485978,,
14526159709,0.81572,15930765407,12571707,1860291951,-14070473456,,
14526210733,0.86674,15930816433,12622728,2022778588,-13908037845,,
14526261341,0.91735,15930867042,12673333,2183937231,-13746929811,,
14526311881,0.96789,15930917585,12723870,2344879318,-13586038267,,
14526362403,1.01841,15930968110,12774391,2505767267,-13425200843,,
14526413452,1.06946,15931019161,12825436,2668330335,-13262688826,,
14526464501,1.12051,15931070213,12876482,2830893404,-13100176809,,
14526515081,1.17109,15931120795,12927060,2991962876,-12939157919,,
14526565598,1.22161,15931171313,12977574,3152831717,-12778339596,,
14526616148,1.27215,15931221866,13028121,3313805651,-12617416215,,
14526667181,1.32319,15931272902,13079151,3476320950,-12454951952,,
14526717762,1.37377,15931323485,13129730,3637393607,-12293929878,,
14526768804,1.42481,15931374529,13180769,3799934383,-12131440146,,
14526819525,1.47553,15931425253,13231487,3961456075,-11969969178,,
14526870120,1.52613,15931475851,13282080,4122573317,-11808902534,,
14526920715,1.57672,15931526447,13332672,4283690560,-11647835887,,
14526971255,1.62726,15931576990,13383210,4444635832,-11486941158,,
14527021802,1.67781,15931627539,13433753,4605597027,-11326030512,,
14527072511,1.72852,15931678251,13484461,4767086872,-11164591379,,
14527122921,1.77893,15931728662,13534867,4927608587,-11004120075,,
14527173062,1.82907,15931778818,13585016,5087318219,-10844460599,,
14527223895,1.87990,15931829642,13635836,5249158374,-10682671268,,
14527274857,1.93086,15931880606,13686795,5411447564,-10520433042,,
14527325567,1.98157,15931931328,13737513,5572966071,-10358965257,,
14527376181,2.03219,15931981946,13788125,5734147006,-10197834940,,
14527427253,2.08326,15932033009,13839183,5896748290,-10035284719,,
14527478302,2.13431,15932084060,13890229,6059308174,-9872775886,,
14527529294,2.18530,15932135054,13941218,6221689718,-9710445336,,
14527579899,2.23591,15932185663,13991820,6382841991,-9549343672,,
14527630890,2.28690,15932236656,14042810,6545223535,-9387013121,,
14527681486,2.33749,15932287254,14093402,6706343963,-9225943291,,
14527732504,2.38851,15932338275,14144417,6868808307,-9063529968,,
14527783056,2.43906,15932388828,14194967,7029788610,-8902600218,,
14527833606,2.48961,15932439380,14245514,7190762544,-8741676836,,
14527884652,2.54066,15932490429,14296557,7353316058,-8579174371,,
14527935237,2.59124,15932541017,14347139,7514401454,-8418139563,,
14527986347,2.64235,15932592130,14398247,7677165155,-8255426975,,
14528037415,2.69342,15932643200,14449313,7839788732,-8092854468,,
14528088315,2.74432,15932694102,14500210,8001877289,-7930816813,,
14528138731,2.79474,15932744521,14550623,8162424481,-7770320040,,
14528189729,2.84574,15932795531,14601629,8324860164,-7607935367,,
14528240644,2.89665,15932846438,14652541,8486996491,-7445849947,,
14528291699,2.94771,15932897496,14703583,8649546821,-7283350675,,
14528342198,2.99821,15932947997,14754080,8810361522,-7122586475,,
14528393109,3.04912,15932998909,14804987,8972481926,-6960516983,,
14528443234,3.09924,15933049038,14855109,9132105573,-6800943465,,
14528493467,3.14947,15933099273,14905340,9292069976,-6641029297,,
14528544513,3.20052,15933150321,14956383,9454623491,-6478526830,,
14528595114,3.25112,15933200924,15006981,9615759841,-6317441083,,
14528645723,3.30173,15933251536,15057587,9776924853,-6156326683,,
14528696243,3.35225,15933302059,15108106,9937806432,-5995495627,,
14528747092,3.40310,15933352909,15158951,10099729388,-5833623521,,
14528797628,3.45363,15933403447,15209484,10260658737,-5672744710,,
14528848335,3.50434,15933454158,15260190,10422139028,-5511315130,,
14528899347,3.55535,15933505172,15311198,10584581080,-5348924092,,
14528950373,3.60638,15933556200,15362234,10747112302,-5186443898,,
14529000883,3.65689,15933606713,15412728,10907920635,-5025686078,,
14529051523,3.70753,15933657355,15463366,11069184371,-4864472984,,
14529102085,3.75809,15933707931,15513937,11230234736,-4703473195,,
14529153085,3.80909,15933758923,15564924,11392609911,-4541149012,,
14529204160,3.86017,15933809999,15615994,11555249410,-4378560589,,
14529255148,3.91115,15933860989,15666980,11717618216,-4216242773,,
14529305714,3.96172,15933911558,15717543,11878646288,-4055265270,,
14529356306,4.01231,15933962152,15768132,12039753977,-3894208175,,
14529407355,4.06336,15934013204,15819180,12202320230,-3731692974,,
14529458403,4.11441,15934064253,15870224,12364880114,-3569184139,,
14529509473,4.16548,15934115326,15921291,12527510060,-3406605266,,
14529560262,4.21627,15934166118,15972077,12689245122,-3244920996,,
14529611321,4.26733,15934217179,16023135,12851843221,-3082373958,,
14529661964,4.31797,15934267824,16073774,13013113326,-2921154498,,
14529712996,4.36900,15934318858,16124803,13175622256,-2758696602,,
14529764055,4.42006,15934369919,16175860,13338217171,-2596152748,,
14529814848,4.47086,15934420715,16226650,13499964972,-2434455743,,
14529865418,4.52142,15934471288,16277217,13661005783,-2273465505,,
14529915968,4.57198,15934521840,16327764,13821976532,-2112545308,,
14529966384,4.62239,15934572258,16378178,13982530093,-1952042165,,
14530016957,4.67296,15934622834,16428758,14143609120,-1791013714,,
14530067991,4.72400,15934673870,16479779,14306092573,-1628581297,,
14530118660,4.77467,15934724542,16530446,14467448663,-1467275879,,
14530168981,4.82499,15934774865,16580764,14627693314,-1307081551,,
14530220013,4.87602,15934825899,16631793,14790199059,-1144626840,,
14530271123,4.92713,15934877012,16682900,14952959575,-981917437,,
14530321256,4.97726,15934927146,16733031,15112608699,-822318447,,
14530371803,5.02781,15934977696,16783575,15273573079,-661404617,,
14530422410,5.07842,15935028318,16834191,15434766753,-500261565,,
14530472998,5.12901,15935078895,16884765,15595823487,-339255408,,
14530523600,5.17961,15935129500,16935364,15756963022,-178166478,,
14530574185,5.23019,15935180087,16985946,15918048418,-17131669,,
14530624777,5.28078,15935230681,17036535,15935230167,-514,,
14530675278,5.33129,15935281185,17087034,15935280666,-519,,
14530725403,5.38141,15935331312,17137156,15935330788,-524,,
14530776024,5.43203,15935381936,17187774,15935381407,-529,,
14530826596,5.48260,15935432510,17238344,15935431976,-534,,
14530877224,5.53323,15935483141,17288969,15935482602,-539,,
14530928271,5.58428,15935534190,17340013,15935533646,-544,,
14530978879,5.63489,15935584801,17390620,15935584252,-549,,
14531029923,5.68593,15935635846,17441660,15935635292,-554,,
14531080285,5.73629,15935686211,17492019,15935685652,-559,,
14531131357,5.78736,15935737286,17543088,15935736721,-565,,
14531182405,5.83841,15935788336,17594135,15935787768,-568,,
14531232919,5.88893,15935838853,17644645,15935838277,-576,,
14531283990,5.94000,15935889926,17695714,15935889346,-580,,
14531334597,5.99060,15935940535,17746318,15935939951,-584,,
14531385612,6.04162,15935991552,17797330,15935990962,-590,,
14531436227,6.09223,15936042170,17847942,15936041575,-595,,
14531487274,6.14328,15936093219,17898987,15936092619,-600,,
14531538323,6.19433,15936144271,17950034,15936143666,-605,,
14531588865,6.24487,15936194816,18000574,15936194206,-610,,
14531639923,6.29593,15936245875,18051627,15936245259,-616,,
14531690479,6.34649,15936296443,18102190,15936295824,-619,,
14531741551,6.39756,15936347508,18153250,15936346883,-625,,
14531792599,6.44861,15936398559,18204296,15936397928,-631,,
14531843210,6.49922,15936449172,18254903,15936448536,-636,,
14531893735,6.54974,15936499710,18305439,15936499072,-638,,
14531944820,6.60083,15936550787,18356508,15936550141,-646,,
14531995422,6.65143,15936601390,18407107,15936600739,-651,,
14532045577,6.70158,15936651548,18457260,15936650892,-656,,
14532096611,6.75262,15936702585,18508291,15936701924,-661,,
14532147243,6.80325,15936753219,18558921,15936752553,-666,,
14532198263,6.85427,15936804241,18609937,15936803570,-671,,
14532248785,6.90479,15936854777,18660468,15936854101,-676,,
14532299838,6.95585,15936905821,18711518,15936905151,-670,,
14532350907,7.00691,15936956893,18762573,15936956206,-687,,
14532401956,7.05796,15937007944,18813619,15937007252,-692,,
14532453005,7.10901,15937058995,18864667,15937058299,-696,,
14532503548,7.15956,15937109541,18915206,15937108839,-702,,
14532554064,7.21007,15937160059,18965719,15937159352,-707,,
14532605150,7.26116,15937211147,19016803,15937210436,-711,,
14532656196,7.31220,15937262195,19067846,15937261479,-716,,
14532707049,7.36306,15937313051,19118696,15937312329,-722,,
14532757587,7.41359,15937363590,19169231,15937362864,-726,,
14532808213,7.46422,15937414220,19219855,15937413488,-732,,
14532858760,7.51477,15937464770,19270400,15937464033,-737,,
14532908931,7.56494,15937514942,19320567,15937514200,-742,,
14532959541,7.61555,15937565554,19371175,15937564807,-747,,
14533010118,7.66613,15937616133,19421749,15937615382,-751,,
14533061068,7.71708,15937667087,19472696,15937666329,-758,,
14533111585,7.76759,15937717605,19523210,15937716843,-762,,
14533161816,7.81782,15937767839,19573440,15937767073,-766,,
14533212492,7.86850,15937818529,19624124,15937817757,-772,,
14533263565,7.91957,15937869593,19675183,15937868815,-778,,
14533314614,7.97062,15937920644,19726230,15937919862,-782,,
14533365681,8.02169,15937971714,19777293,15937970926,-788,,
14533416713,8.07272,15938022748,19828323,15938021956,-792,,
14533467762,8.12377,15938073799,19879368,15938073001,-798,,
14533518810,8.17482,15938124850,19930414,15938124047,-803,,
14533569860,8.22587,15938175902,19981462,15938175094,-808,,
14533620883,8.27689,15938226928,20032494,15938226127,-801,,
14533671983,8.32799,15938278030,20083579,15938277211,-819,,
14533723025,8.37903,15938329085,20134630,15938328263,-822,,
14533773600,8.42961,15938379652,20185191,15938378823,-829,,
14533823749,8.47976,15938429802,20235336,15938428968,-834,,
14533873899,8.52991,15938479955,20285484,15938479128,-827,,
14533924538,8.58055,15938530596,20336120,15938529752,-844,,
14533975122,8.63113,15938581182,20386701,15938580333,-849,,
14534025738,8.68174,15938631801,20437316,15938630948,-853,,
14534076787,8.73279,15938682853,20488362,15938681994,-859,,
14534127535,8.78354,15938733603,20539107,15938732739,-864,,
14534178233,8.83424,15938784303,20589801,15938783433,-870,,
14534228842,8.88485,15938834914,20640408,15938834040,-874,,
14534279894,8.93590,15938885969,20691458,15938885090,-879,,
14534330595,8.98660,15938936672,20742155,15938935787,-885,,
14534381008,9.03702,15938987088,20792566,15938986198,-890,,
14534431560,9.08757,15939037642,20843115,15939036748,-894,,
14534482172,9.13818,15939088257,20893724,15939087357,-900,,
14534532585,9.18859,15939138672,20944134,15939137767,-905,,
14534583607,9.23961,15939189696,20995154,15939188787,-909,,
14534634173,9.29018,15939240265,21045717,15939239350,-915,,
14534684719,9.34073,15939290813,21096260,15939289893,-920,,
14534735721,9.39173,15939341816,21147260,15939340893,-923,,
14534786784,9.44279,15939392883,21198321,15939391953,-930,,
14534836930,9.49294,15939443031,21248463,15939442096,-935,,
14534887954,9.54396,15939494056,21299484,15939493116,-940,,
14534938999,9.59501,15939545105,21350528,15939544160,-945,,
14534990078,9.64608,15939596186,21401603,15939595236,-950,,
14535040621,9.69663,15939646731,21452143,15939645775,-956,,
14535090976,9.74698,15939697089,21502497,15939696129,-960,,
14535141438,9.79744,15939747552,21552955,15939746587,-965,,
14535191923,9.84793,15939798040,21603437,15939797069,-971,,
14535242528,9.89854,15939848648,21654039,15939847672,-976,,
14535293576,9.94958,15939899698,21705086,15939898718,-980,,
14535344625,10.00063,15939950750,21756131,15939949764,-986,,
14535395658,10.05166,15940001795,21807171,15940000804,-991,,
14535446732,10.10274,15940052860,21858233,15940051865,-995,,
14535497780,10.15379,15940103912,21909278,15940102911,-1001,,
14535548827,10.20483,15940154961,21960322,15940153955,-1006,,
14535599877,10.25588,15940206014,22011369,15940205002,-1012,,
14535655093,10.31110,15940261231,22066582,15940260214,-1017,,
14535705941,10.36195,15940312082,22117428,15940311060,-1022,,
14535756489,10.41250,15940362632,22167973,15940361606,-1026,,
14535807078,10.46308,15940413223,22218559,15940412191,-1032,,
14535857657,10.51366,15940463805,22269136,15940462768,-1037,,
14535908676,10.56468,15940514827,22320153,15940513785,-1042,,
14535959318,10.61533,15940565471,22370791,15940564424,-1047,,
14536009657,10.66566,15940615813,22421127,15940614760,-1053,,
14536060255,10.71626,15940666413,22471723,15940665356,-1057,,
14536111281,10.76729,15940717440,22522746,15940716379,-1061,,
14536162307,10.81831,15940768469,22573769,15940767402,-1067,,
14536214697,10.87070,15940820861,22626155,15940819788,-1073,,
14536266019,10.92203,15940872187,22677476,15940871109,-1078,,
14536316180,10.97219,15940922349,22727634,15940921266,-1083,,
14536366309,11.02232,15940972481,22777761,15940971394,-1087,,
14536417350,11.07336,15941023524,22828799,15941022432,-1092,,
14536468019,11.12403,15941074196,22879466,15941073098,-1098,,
14536519036,11.17504,15941125215,22930480,15941124112,-1103,,
14536569322,11.22533,15941175504,22980762,15941174395,-1109,,
14536619534,11.27554,15941225718,23030972,15941224605,-1113,,
14536670167,11.32617,15941276352,23081602,15941275234,-1118,,
14536721203,11.37721,15941327392,23132635,15941326268,-1124,,
14536777555,11.43356,15941383746,23188984,15941382617,-1129,,
14536828544,11.48455,15941434737,23239971,15941433603,-1134,,
14536878644,11.53465,15941484839,23290068,15941483700,-1139,,
14536929291,11.58530,15941535488,23340712,15941534344,-1144,,
14536979806,11.63581,15941586008,23391226,15941584859,-1149,,
14537030325,11.68633,15941636527,23441741,15941635373,-1154,,
14537080706,11.73671,15941686910,23492119,15941685751,-1159,,
14537131139,11.78715,15941737347,23542549,15941736182,-1165,,
14537181539,11.83755,15941787748,23592947,15941786579,-1169,,
14537233521,11.88953,15941839733,23644926,15941838558,-1175,,
14537283711,11.93972,15941889925,23695113,15941888745,-1180,,
14537333988,11.99000,15941940204,23745388,15941939020,-1184,,
14537384114,12.04012,15941990334,23795511,15941989143,-1191,,
14537434624,12.09063,15942040845,23846018,15942039650,-1195,,
14537484718,12.14072,15942090942,23896109,15942089742,-1200,,
14537535059,12.19107,15942141285,23946448,15942140080,-1205,,
14537585449,12.24146,15942191678,23996835,15942190468,-1210,,
14537635821,12.29183,15942242051,24047204,15942240836,-1215,,
14537686429,12.34244,15942292662,24097810,15942291442,-1220,,
14537736787,12.39279,15942343022,24148165,15942341798,-1224,,
14537787602,12.44361,15942393840,24198977,15942392610,-1230,,
14537838158,12.49417,15942444399,24249531,15942443163,-1236,,
14537888965,12.54497,15942495208,24300335,15942493968,-1240,,
14537939611,12.59562,15942545856,24350978,15942544611,-1245,,
14537989825,12.64583,15942596072,24401189,15942594822,-1250,,
14538040432,12.69644,15942646681,24451794,15942645427,-1254,,
14538091176,12.74718,15942697428,24502535,15942696168,-1260,,
14538141995,12.79800,15942748249,24553350,15942746983,-1266,,
14538192308,12.84831,15942798565,24603663,15942797295,-1270,,
14538242774,12.89878,15942849033,24654125,15942847758,-1275,,
14538293442,12.94945,15942899704,24704790,15942898423,-1281,,
14538344126,13.00013,15942950389,24755472,15942949104,-1285,,
14538394405,13.05041,15943000672,24805748,15942999381,-1291,,
14538444594,13.10060,15943050863,24855934,15943049566,-1297,,
14538495045,13.15105,15943101316,24906383,15943100015,-1301,,
14538545263,13.20127,15943151536,24956598,15943150230,-1306,,
14538595853,13.25186,15943202129,25007186,15943200818,-1311,,
14538646479,13.30249,15943252757,25057808,15943251441,-1316,,
14538697074,13.35308,15943303354,25108401,15943302033,-1321,,
14538747799,13.40381,15943354082,25159123,15943352755,-1327,,
14538798176,13.45418,15943404461,25209498,15943403130,-1331,,
14538848386,13.50439,15943454673,25259705,15943453337,-1336,,
14538898753,13.55476,15943505043,25310070,15943503702,-1341,,
14538949050,13.60506,15943555342,25360363,15943553995,-1347,,
14538999406,13.65541,15943605701,25410716,15943604348,-1353,,
14539049613,13.70562,15943655909,25460921,15943654554,-1355,,
14539099878,13.75588,15943706176,25511183,15943704815,-1361,,
14539150590,13.80660,15943756891,25561892,15943755525,-1366,,
14539201367,13.85737,15943807670,25612667,15943806300,-1370,,
14539252091,13.90810,15943858396,25663388,15943857021,-1375,,
14539302352,13.95836,15943908661,25713646,15943907279,-1382,,
14539353066,14.00907,15943959377,25764359,15943957991,-1386,,
14539403850,14.05986,15944010163,25815139,15944008772,-1391,,
14539454547,14.11055,15944060863,25865833,15944059466,-1397,,
14539504800,14.16081,15944111117,25916083,15944109716,-1401,,
14539555443,14.21145,15944161764,25966724,15944160357,-1407,,
14539605765,14.26177,15944212087,26017043,15944210675,-1412,,
14539655989,14.31200,15944262313,26067264,15944260896,-1417,,
14539706713,14.36272,15944313041,26117986,15944311619,-1422,,
14539757178,14.41319,15944363508,26168449,15944362081,-1427,,
14539807402,14.46341,15944413733,26218669,15944412301,-1432,,
14539857707,14.51371,15944464042,26268972,15944462605,-1437,,
14539908502,14.56451,15944514838,26319764,15944513396,-1442,,
14539958850,14.61486,15944565188,26370109,15944563741,-1447,,
14540009194,14.66520,15944615535,26420450,15944614082,-1453,,
14540059852,14.71586,15944666196,26471106,15944664739,-1457,,
14540110465,14.76647,15944716811,26521717,15944715349,-1462,,
14540161110,14.81712,15944767459,26572359,15944765992,-1467,,
14540211776,14.86778,15944818127,26623023,15944816655,-1472,,
14540262374,14.91838,15944868727,26673617,15944867250,-1477,,
14540312738,14.96875,15944919094,26723978,15944917611,-1483,,
14540363054,15.01906,15944969411,26774291,15944967923,-1488,,
14540413192,15.06920,15945019552,26824428,15945018060,-1492,,
14540463932,15.11994,15945070295,26875165,15945068798,-1497,,
14540514085,15.17009,15945120450,26925314,15945118947,-1503,,
14540564224,15.22023,15945170591,26975451,15945169084,-1507,,
14540614718,15.27073,15945221088,27025942,15945219575,-1513,,
