Server clock before sync: 35
Synchronizing server_clock...
[1/51] [2/51] [3/51] [4/51] [5/51] [6/51] [7/51] [8/51] [9/51] [10/51] 
[11/51] [12/51] [13/51] [14/51] [15/51] [16/51] [17/51] [18/51] [19/51] [20/51] 
[21/51] [22/51] [23/51] [24/51] [25/51] [26/51] [27/51] [28/51] [29/51] [30/51] 
[31/51] [32/51] [33/51] [34/51] [35/51] [36/51] [37/51] [38/51] [39/51] [40/51] 
[41/51] [42/51] [43/51] [44/51] [45/51] [46/51] [47/51] [48/51] [49/51] [50/51] 
Best Server Sync RTT: 234822, Worst Server Sync RTT: 251762
Average RTT: 235522.560000
Est Server Time: 15929972328, Computed Server Time offset: 15918195913
Server clock after sync: 15929972329

====== SIMULATION METADATA     =====
Server IP: 128.83.139.94, Port: 8050
Server Drift: 50.00 PPM, Client VHC Drift: -50.00 PPM
Relative Drift Weight: -3.50
Local Server Time Error: 117411
Rapport Period: 30000000
Amortization Period: 5000000
Simulation runtime: 1800 seconds
Simulation runtime: 1800000000 usec, 
 Start: 14525366606, End: 16325366606
====== SIMULATION OUTPUT START =====
Current Real Time,Real Time Elapsed (sec),Local Server Time,Hardware Clock Time,Software Clock Time,Error,Remote Est Time,
14525366701,0.00010,15929972425,11775336,11775336,-15918197089,,
14525601646,0.23504,15930207381,12010268,12010268,-15918197113,15930207288,
14525626775,0.26017,15930232511,12035396,92040254,-15838192257,,
14525677330,0.31072,15930283069,12085949,253033330,-15677249739,,
14525727498,0.36089,15930333239,12136115,412793950,-15517539289,,
14525778043,0.41144,15930383787,12186656,573751995,-15356631792,,
14525828613,0.46201,15930434358,12237223,734786471,-15195647887,,
14525878753,0.51215,15930484501,12287362,894461106,-15036023395,,
14525930095,0.56349,15930535846,12338700,1057957309,-14872578537,,
14525980843,0.61424,15930586595,12389445,1219558651,-14711027944,,
14526031424,0.66482,15930637178,12440023,1380631342,-14550005836,,
14526081539,0.71493,15930687297,12490136,1540226362,-14390460935,,
14526132183,0.76558,15930737943,12540777,1701499686,-14229238257,,
14526182740,0.81613,15930788503,12591331,1862495946,-14068292557,,
14526233802,0.86720,15930839567,12642391,2025103634,-13905735933,,
14526284850,0.91824,15930890616,12693436,2187660368,-13743230248,,
14526335924,0.96932,15930941694,12744507,2350306271,-13580635423,,
14526386428,1.01982,15930992200,12795008,2511133746,-13419858454,,
14526437484,1.07088,15931043258,12846063,2673722326,-13257320932,,
14526488498,1.12189,15931094274,12897073,2836170782,-13094923492,,
14526539074,1.17247,15931144852,12947646,2997227551,-12933917301,,
14526590131,1.22352,15931195912,12998702,3159822500,-12771373412,,
14526641182,1.27458,15931246965,13049749,3322388788,-12608858177,,
14526692240,1.32563,15931298026,13100804,3484983737,-12446314289,,
14526743281,1.37668,15931349069,13151842,3647518179,-12283830890,,
14526794336,1.42773,15931400127,13202896,3810106759,-12121293368,,
14526844547,1.47794,15931450351,13253115,3970039350,-11961411001,,
14526894625,1.52802,15931500420,13303178,4129468768,-11802031652,,
14526945025,1.57842,15931550823,13353577,4289971409,-11641579414,,
14526995299,1.62869,15931601098,13403847,4450066416,-11481534682,,
14527045827,1.67922,15931651630,13454373,4610970322,-11320681308,,
14527096065,1.72946,15931701870,13504608,4770950683,-11160751187,,
14527146472,1.77987,15931752278,13555012,4931469247,-11000283031,,
14527196556,1.82995,15931802366,13605094,5090962358,-10840840008,,
14527246926,1.88032,15931852738,13655460,5251363091,-10680489647,,
14527297545,1.93094,15931903358,13706077,5412559984,-10519343374,,
14527348593,1.98199,15931954410,13757123,5575151748,-10356802662,,
14527399227,2.03262,15932005046,13807753,5736358195,-10195646851,,
14527450276,2.08367,15932056096,13858800,5898924483,-10033131613,,
14527501324,2.13472,15932107147,13909845,6061484401,-9870622746,,
14527552373,2.18577,15932158199,13960891,6224050689,-9708107510,,
14527603423,2.23682,15932209252,14011938,6386616976,-9545592276,,
14527654472,2.28787,15932260303,14062986,6549183264,-9383077039,,
14527705520,2.33891,15932311353,14114030,6711743183,-9220568170,,
14527756069,2.38946,15932361905,14164576,6872713966,-9059647939,,
14527807076,2.44047,15932412914,14215580,7035143314,-8897269600,,
14527857667,2.49106,15932463507,14266169,7196251037,-8736212470,,
14527908686,2.54208,15932514529,14317185,7358718601,-8573795928,,
14527959296,2.59269,15932565140,14367792,7519880462,-8412684678,,
14528010403,2.64380,15932616251,14418897,7682634644,-8249981607,,
14528061461,2.69486,15932667311,14469953,7845226409,-8087440902,,
14528112083,2.74548,15932717935,14520572,8006429671,-7926288264,,
14528162738,2.79613,15932768593,14571223,8167738026,-7765030567,,
14528213658,2.84705,15932819515,14622141,8329893495,-7602926020,,
14528264690,2.89808,15932870549,14673170,8492402459,-7440468090,,
14528315604,2.94900,15932921466,14724081,8654532451,-7278389015,,
14528366074,2.99947,15932971938,14774549,8815258017,-7117713921,,
14528416684,3.05008,15933022550,14825156,8976423064,-6956599486,,
14528466861,3.10026,15933072730,14875330,9136209161,-6796863569,,
14528517488,3.15088,15933123364,14925959,9297441085,-6635682279,,
14528568507,3.20190,15933174380,14976971,9459895910,-6473278470,,
14528619143,3.25254,15933225018,15027604,9621146942,-6312078076,,
14528669713,3.30311,15933275590,15078171,9782181418,-6151094172,,
14528720271,3.35366,15933326151,15128727,9943184048,-5990142103,,
14528771025,3.40442,15933376908,15179479,10104810867,-5828566041,,
14528821920,3.45531,15933427805,15230371,10266883535,-5666544270,,
14528872790,3.50618,15933478677,15281237,10428876588,-5504602089,,
14528923871,3.55727,15933529760,15332316,10591544784,-5341984976,,
14528974864,3.60826,15933580755,15383306,10753926363,-5179654392,,
14529024943,3.65834,15933630849,15433394,10913441766,-5020189083,,
14529075486,3.70888,15933681382,15483923,11074355225,-4859326157,,
14529126056,3.75945,15933731955,15534491,11235396071,-4698335884,,
14529177100,3.81049,15933783002,15585531,11397943251,-4535839751,,
14529228181,3.86158,15933834085,15636610,11560608262,-4373225823,,
14529279175,3.91257,15933885082,15687601,11722999395,-4210885687,,
14529329757,3.96315,15933935666,15738193,11884116671,-4049818995,,
14529380817,4.01421,15933986728,15789239,12046679775,-3887306953,,
14529431845,4.06524,15934037760,15840265,12209179185,-3724858575,,
14529482926,4.11632,15934088842,15891341,12371837827,-3562251015,,
14529533764,4.16716,15934139682,15942176,12533725786,-3400413896,,
14529584813,4.21821,15934190733,15993222,12696292074,-3237898659,,
14529635369,4.26876,15934241292,16043788,12857323366,-3076917926,,
14529685936,4.31933,15934291861,16094340,13018316441,-2915975420,,
14529736979,4.37037,15934342906,16145380,13180857252,-2753485654,,
14529787295,4.42069,15934393225,16195693,13341089199,-2593304026,,
14529837907,4.47130,15934443839,16246304,13502263799,-2432180040,,
14529888977,4.52237,15934494912,16297371,13664893780,-2269601132,,
14529939866,4.57326,15934545802,16348256,13826944156,-2107601646,,
14529990927,4.62432,15934596867,16399315,13989548659,-1945048208,,
14530041512,4.67491,15934647453,16449897,14150634090,-1784013363,,
14530092062,4.72546,15934698005,16500444,14311608057,-1623089948,,
14530142408,4.77580,15934748354,16550787,14471932359,-1462815995,,
14530192986,4.82638,15934798935,16601363,14633001866,-1301797069,,
14530244072,4.87747,15934850023,16652447,14795682801,-1139167222,,
14530294670,4.92806,15934900623,16703041,14956809632,-978090991,,
14530344755,4.97815,15934950711,16753125,15116305927,-818644784,,
14530395792,5.02919,15935001750,16804158,15278830814,-656170936,,
14530446400,5.07979,15935052360,16854763,15439986307,-495066053,,
14530496984,5.13038,15935102947,16905345,15601074922,-334028025,,
14530547144,5.18054,15935153109,16955502,15760803696,-174349413,,
14530597708,5.23110,15935203675,17006062,15921822249,-13381426,,
14530648787,5.28218,15935254757,17057139,15935254162,-595,,
14530699801,5.33319,15935305773,17108151,15935305173,-600,,
14530750395,5.38379,15935356370,17158743,15935355765,-605,,
14530800592,5.43399,15935406569,17208937,15935405959,-610,,
14530851237,5.48463,15935457217,17259579,15935456602,-615,,
14530902249,5.53564,15935508231,17310588,15935507611,-620,,
14530953302,5.58670,15935559286,17361638,15935558672,-614,,
14531003934,5.63733,15935609921,17412268,15935609290,-631,,
14531054440,5.68783,15935660429,17462771,15935659794,-635,,
14531105309,5.73870,15935711300,17513638,15935710660,-640,,
14531156333,5.78973,15935762327,17564658,15935761680,-647,,
14531206442,5.83984,15935812438,17614766,15935811789,-649,,
14531257434,5.89083,15935863433,17665754,15935862777,-656,,
14531308512,5.94191,15935914512,17716829,15935913851,-661,,
14531359618,5.99301,15935965621,17767933,15935964955,-666,,
14531410182,6.04358,15936016187,17818505,15936015528,-659,,
14531461248,6.09464,15936067255,17869557,15936066579,-676,,
14531512300,6.14569,15936118309,17920606,15936117628,-681,,
14531563323,6.19672,15936169335,17971626,15936168648,-687,,
14531614396,6.24779,15936220410,18022697,15936219719,-691,,
14531665416,6.29881,15936271433,18073714,15936270736,-697,,
14531716026,6.34942,15936322046,18124322,15936321344,-702,,
14531767075,6.40047,15936373097,18175369,15936372391,-706,,
14531818124,6.45152,15936424148,18226414,15936423437,-711,,
14531868693,6.50209,15936474720,18276980,15936474003,-717,,
14531919297,6.55269,15936525326,18327582,15936524604,-722,,
14531969905,6.60330,15936575936,18378187,15936575210,-726,,
14532020466,6.65386,15936626500,18428745,15936625768,-732,,
14532071085,6.70448,15936677121,18479362,15936676384,-737,,
14532122128,6.75552,15936728178,18530414,15936727437,-741,,
14532172738,6.80613,15936778779,18581009,15936778032,-747,,
14532223744,6.85714,15936829786,18632012,15936829034,-752,,
14532274333,6.90773,15936880378,18682598,15936879620,-758,,
14532325381,6.95878,15936931429,18733645,15936930667,-762,,
14532376447,7.00984,15936982498,18784707,15936981729,-769,,
14532427446,7.06084,15937033498,18835703,15937032725,-773,,
14532478501,7.11189,15937084555,18886756,15937083778,-777,,
14532529528,7.16292,15937135586,18937780,15937134803,-783,,
14532580092,7.21349,15937186152,18988341,15937185364,-788,,
14532631176,7.26457,15937237238,19039423,15937236445,-793,,
14532682054,7.31545,15937288119,19090299,15937287321,-798,,
14532733054,7.36645,15937339121,19141295,15937338317,-804,,
14532783161,7.41655,15937389230,19191400,15937388422,-808,,
14532834203,7.46760,15937440275,19242438,15937439461,-814,,
14532884341,7.51774,15937490414,19292574,15937489597,-817,,
14532934957,7.56835,15937541034,19343188,15937540210,-824,,
14532985094,7.61849,15937591172,19393321,15937590343,-829,,
14533035638,7.66903,15937641719,19443864,15937640897,-822,,
14533086334,7.71973,15937692418,19494556,15937691578,-840,,
14533136727,7.77012,15937742813,19544946,15937741969,-844,,
14533186977,7.82037,15937793065,19595195,15937792217,-848,,
14533238043,7.87144,15937844134,19646258,15937843280,-854,,
14533289053,7.92245,15937895145,19697276,15937894298,-847,,
14533340140,7.97353,15937946235,19748349,15937945371,-864,,
14533391189,8.02458,15937997286,19799395,15937996417,-869,,
14533442237,8.07563,15938048337,19850441,15938047463,-874,,
14533493286,8.12668,15938099387,19901486,15938098508,-879,,
14533544335,8.17773,15938150440,19952533,15938149555,-885,,
14533595359,8.22875,15938201476,20003565,15938200588,-888,,
14533646432,8.27983,15938252542,20054624,15938251647,-895,,
14533697485,8.33088,15938303608,20105686,15938302709,-899,,
14533748138,8.38153,15938354252,20156325,15938353348,-904,,
14533798686,8.43208,15938404803,20206871,15938403893,-910,,
14533848808,8.48220,15938454926,20256989,15938454023,-903,,
14533898964,8.53236,15938505085,20307143,15938504166,-919,,
14533949117,8.58251,15938555241,20357294,15938554316,-925,,
14534000155,8.63355,15938606280,20408328,15938605350,-930,,
14534050722,8.68412,15938656850,20458892,15938655915,-935,,
14534101774,8.73517,15938707905,20509943,15938706965,-940,,
14534152524,8.78592,15938758657,20560689,15938757711,-946,,
14534202820,8.83621,15938808954,20610982,15938808005,-949,,
14534253839,8.88723,15938859977,20661999,15938859022,-955,,
14534304875,8.93827,15938911015,20713032,15938910055,-960,,
14534355230,8.98862,15938961373,20763384,15938960406,-967,,
14534405987,9.03938,15939012131,20814137,15939011160,-971,,
14534456144,9.08954,15939062290,20864293,15939061315,-975,,
14534506713,9.14011,15939112863,20914859,15939111881,-982,,
14534557138,9.19053,15939163290,20965282,15939162304,-986,,
14534607899,9.24129,15939214053,21016040,15939213063,-990,,
14534658664,9.29206,15939264820,21066801,15939263824,-996,,
14534709718,9.34311,15939315877,21117853,15939314876,-1001,,
14534760307,9.39370,15939366468,21168440,15939365462,-1006,,
14534810832,9.44423,15939416996,21218963,15939415985,-1011,,
14534861459,9.49485,15939467625,21269586,15939466609,-1016,,
14534912510,9.54590,15939518677,21320634,15939517657,-1020,,
14534963032,9.59643,15939569203,21371166,15939568189,-1014,,
14535013810,9.64720,15939619983,21421929,15939618952,-1031,,
14535064466,9.69786,15939670641,21472582,15939669604,-1037,,
14535114536,9.74793,15939720725,21522661,15939719683,-1042,,
14535164996,9.79839,15939771176,21573108,15939770130,-1046,,
14535215488,9.84888,15939821671,21623597,15939820619,-1052,,
14535266550,9.89994,15939872735,21674655,15939871678,-1057,,
14535317597,9.95099,15939923784,21725701,15939922723,-1061,,
14535368631,10.00202,15939974821,21776743,15939973766,-1055,,
14535419681,10.05307,15940025885,21827790,15940024813,-1072,,
14535470753,10.10415,15940076947,21878847,15940075870,-1077,,
14535521799,10.15519,15940127996,21929891,15940126914,-1082,,
14535572804,10.20620,15940179003,21980894,15940177916,-1087,,
14535623341,10.25674,15940229543,22031428,15940228450,-1093,,
14535680530,10.31392,15940286733,22088613,15940285635,-1098,,
14535731304,10.36470,15940337510,22139384,15940336406,-1104,,
14535781792,10.41519,15940388000,22189870,15940386893,-1107,,
14535832128,10.46552,15940438339,22240204,15940437226,-1113,,
14535882705,10.51610,15940488918,22290777,15940487799,-1119,,
14535933264,10.56666,15940539480,22341334,15940538357,-1123,,
14535984077,10.61747,15940590295,22392144,15940589167,-1128,,
14536034662,10.66806,15940640882,22442726,15940639748,-1134,,
14536085300,10.71869,15940691523,22493362,15940690385,-1138,,
14536136316,10.76971,15940742540,22544375,15940741397,-1143,,
14536188750,10.82214,15940794977,22596806,15940793828,-1149,,
14536239767,10.87316,15940845996,22647820,15940844842,-1154,,
14536290689,10.92408,15940896921,22698740,15940895762,-1159,,
14536341267,10.97466,15940947501,22749315,15940946337,-1164,,
14536391862,11.02526,15940998099,22799907,15940996929,-1170,,
14536442360,11.07575,15941048600,22850403,15941047425,-1175,,
14536492525,11.12592,15941098767,22900565,15941097588,-1179,,
14536543299,11.17669,15941149543,22951336,15941148359,-1184,,
14536593872,11.22727,15941200118,23001906,15941198928,-1190,,
14536644465,11.27786,15941250714,23052497,15941249520,-1194,,
14536695183,11.32858,15941301434,23103212,15941300234,-1200,,
14536745713,11.37911,15941351967,23153740,15941350762,-1205,,
14536801004,11.43440,15941407259,23209026,15941406049,-1210,,
14536851645,11.48504,15941457903,23259666,15941456688,-1215,,
14536902378,11.53577,15941508639,23310396,15941507419,-1220,,
14536953076,11.58647,15941559339,23361091,15941558114,-1225,,
14537003620,11.63701,15941609886,23411632,15941608655,-1231,,
14537054108,11.68750,15941660376,23462118,15941659141,-1235,,
14537104447,11.73784,15941710717,23512454,15941709476,-1241,,
14537154807,11.78820,15941761079,23562811,15941759833,-1246,,
14537205888,11.83928,15941812163,23613890,15941810913,-1250,,
14537256150,11.88954,15941862427,23664149,15941861172,-1255,,
14537306426,11.93982,15941912706,23714422,15941911445,-1261,,
14537357061,11.99046,15941963342,23765055,15941962077,-1265,,
14537407377,12.04077,15942013661,23815379,15942012402,-1259,,
14537458131,12.09153,15942064418,23866119,15942063142,-1276,,
14537508286,12.14168,15942114574,23916271,15942113305,-1269,,
14537558791,12.19219,15942165083,23966774,15942163797,-1286,,
14537609112,12.24251,15942215406,24017092,15942214115,-1291,,
14537659500,12.29289,15942265795,24067477,15942264499,-1296,,
14537710180,12.34357,15942316478,24118155,15942315177,-1301,,
14537760826,12.39422,15942367127,24168799,15942365821,-1306,,
14537811618,12.44501,15942417921,24219587,15942416610,-1311,,
14537861695,12.49509,15942468010,24269672,15942466694,-1316,,
14537912246,12.54564,15942518554,24320210,15942517233,-1321,,
14537962794,12.59619,15942569103,24370755,15942567778,-1325,,
14538012894,12.64629,15942619207,24420853,15942617875,-1332,,
14538063165,12.69656,15942669479,24471121,15942668143,-1336,,
14538113880,12.74727,15942720197,24521833,15942718856,-1341,,
14538164163,12.79756,15942770483,24572113,15942769136,-1347,,
14538214728,12.84812,15942821049,24622676,15942819698,-1351,,
14538265785,12.89918,15942872109,24673730,15942870753,-1356,,
14538316067,12.94946,15942922394,24724009,15942921032,-1362,,
14538366232,12.99963,15942972560,24774172,15942971194,-1366,,
14538416551,13.04994,15943022882,24824488,15943021511,-1371,,
14538466902,13.10030,15943073236,24874836,15943071859,-1377,,
14538517135,13.15053,15943123470,24925066,15943122088,-1382,,
14538567493,13.20089,15943173830,24975422,15943172444,-1386,,
14538617932,13.25133,15943224273,25025858,15943222881,-1392,,
14538668496,13.30189,15943274838,25076419,15943273441,-1397,,
14538718781,13.35218,15943325125,25126702,15943323724,-1401,,
14538769012,13.40241,15943375360,25176930,15943373953,-1407,,
14538819344,13.45274,15943425693,25227258,15943424281,-1412,,
14538869579,13.50297,15943475930,25277492,15943474515,-1415,,
14538920070,13.55346,15943526424,25327980,15943525002,-1422,,
14538970719,13.60411,15943577076,25378626,15943575649,-1427,,
14539021098,13.65449,15943627457,25429002,15943626024,-1433,,
14539071665,13.70506,15943678026,25479567,15943676589,-1437,,
14539122053,13.75545,15943728417,25529952,15943726975,-1442,,
14539172773,13.80617,15943779139,25580669,15943777691,-1448,,
14539223074,13.85647,15943829442,25630968,15943827990,-1452,,
14539273820,13.90721,15943880190,25681711,15943878733,-1457,,
14539324535,13.95793,15943930909,25732423,15943929446,-1463,,
14539375599,14.00899,15943981975,25783485,15943980508,-1467,,
14539426043,14.05944,15944032421,25833927,15944030949,-1472,,
14539476724,14.11012,15944083104,25884604,15944081626,-1478,,
14539527121,14.16052,15944133504,25934998,15944132021,-1483,,
14539577614,14.21101,15944183998,25985489,15944182512,-1486,,
14539627945,14.26134,15944234332,26035817,15944232840,-1492,,
14539678527,14.31192,15944284917,26086397,15944283419,-1498,,
14539728839,14.36223,15944335231,26136707,15944333729,-1502,,
14539779862,14.41326,15944386256,26187726,15944384748,-1508,,
14539830443,14.46384,15944436840,26238305,15944435327,-1513,,
14539880970,14.51436,15944487368,26288828,15944485850,-1518,,
14539931837,14.56523,15944538239,26339693,15944536716,-1523,,
14539982559,14.61595,15944588963,26390413,15944587435,-1528,,
14540033116,14.66651,15944639523,26440966,15944637988,-1535,,
14540083475,14.71687,15944689884,26491324,15944688346,-1538,,
14540134052,14.76745,15944740463,26541897,15944738919,-1544,,
14540184797,14.81819,15944791211,26592640,15944789662,-1549,,
14540235714,14.86911,15944842130,26643553,15944840576,-1554,,
14540286033,14.91943,15944892451,26693870,15944890893,-1558,,
14540336351,14.96974,15944942771,26744185,15944941207,-1564,,
14540386600,15.01999,15944993022,26794431,15944991453,-1569,,
14540436910,15.07030,15945043334,26844739,15945041761,-1573,,
14540487510,15.12090,15945093938,26895336,15945092358,-1580,,
14540537638,15.17103,15945144068,26945461,15945142484,-1584,,
14540587957,15.22135,15945194389,26995779,15945192801,-1588,,
14540638263,15.27166,15945244697,27046081,15945243103,-1594,,
