Server clock before sync: 36
Synchronizing server_clock...
[1/51] [2/51] [3/51] [4/51] [5/51] [6/51] [7/51] [8/51] [9/51] [10/51] 
[11/51] [12/51] [13/51] [14/51] [15/51] [16/51] [17/51] [18/51] [19/51] [20/51] 
[21/51] [22/51] [23/51] [24/51] [25/51] [26/51] [27/51] [28/51] [29/51] [30/51] 
[31/51] [32/51] [33/51] [34/51] [35/51] [36/51] [37/51] [38/51] [39/51] [40/51] 
[41/51] [42/51] [43/51] [44/51] [45/51] [46/51] [47/51] [48/51] [49/51] [50/51] 
Best Server Sync RTT: 234964, Worst Server Sync RTT: 237714
Average RTT: 235321.440000
Est Server Time: 15937431129, Computed Server Time offset: 15925664686
Server clock after sync: 15937431130

====== SIMULATION METADATA     =====
Server IP: 128.83.139.94, Port: 8030
Server Drift: 30.00 PPM, Client VHC Drift: -30.00 PPM
Relative Drift Weight: -3.50
Local Server Time Error: 117482
Rapport Period: 10000000
Amortization Period: 5000000
Simulation runtime: 1800 seconds
Simulation runtime: 1800000000 usec, 
 Start: 14525271324, End: 16325271324
====== SIMULATION OUTPUT START =====
Current Real Time,Real Time Elapsed (sec),Local Server Time,Hardware Clock Time,Software Clock Time,Error,Remote Est Time,
14525271487,0.00016,15937431294,11765904,11765904,-15925665390,,
14525506749,0.23542,15937666563,12001158,12001158,-15925665405,15937666497,
14525531817,0.26049,15937691632,12026225,91874326,-15845817306,,
14525582673,0.31135,15937742489,12077080,253901937,-15683840552,,
14525632780,0.36146,15937792596,12127185,413543135,-15524249461,,
14525683327,0.41200,15937843145,12177730,574589417,-15363253728,,
14525733500,0.46218,15937893320,12227901,734440899,-15203452421,,
14525784548,0.51322,15937944369,12278948,897083434,-15040860935,,
14525835131,0.56381,15937994953,12329529,1058238044,-14879756909,,
14525885728,0.61440,15938045552,12380124,1219443633,-14718601919,,
14525936109,0.66478,15938095936,12430506,1379967389,-14558128547,,
14525986323,0.71500,15938146149,12480716,1539943131,-14398203018,,
14526036417,0.76509,15938196255,12530819,1699574770,-14238621485,,
14526086540,0.81522,15938246369,12580931,1859238270,-14079008099,,
14526136688,0.86536,15938296519,12631077,2019013285,-13919283234,,
14526187747,0.91642,15938347578,12682133,2181681309,-13756666269,,
14526238298,0.96697,15938398142,12732694,2342775383,-13595622759,,
14526289329,1.01801,15938449163,12783712,2505325520,-13433123643,,
14526340368,1.06904,15938500204,12834750,2667939379,-13270560825,,
14526390916,1.11959,15938550752,12885295,2828982475,-13109568277,,
14526441473,1.17015,15938601312,12935852,2990063805,-12948537507,,
14526492587,1.22126,15938652426,12986963,3152913438,-12785738988,,
14526543563,1.27224,15938703405,13037937,3315323385,-12623380020,,
14526594112,1.32279,15938753955,13088486,3476376039,-12462377916,,
14526644667,1.37334,15938804511,13139038,3637444624,-12301359887,,
14526695222,1.42390,15938855068,13189592,3798513209,-12140341859,,
14526745770,1.47445,15938905628,13240149,3959594539,-11979311089,,
14526796854,1.52553,15938956702,13291221,4122316727,-11816639975,,
14526847102,1.57578,15939006953,13341467,4282407169,-11656599784,,
14526898142,1.62682,15939057992,13392504,4445017842,-11494040150,,
14526948790,1.67747,15939108642,13443151,4606389110,-11332719532,,
14526999827,1.72850,15939159681,13494186,4768993411,-11170166270,,
14527050318,1.77899,15939210173,13544675,4929858084,-11009352089,,
14527100586,1.82926,15939260442,13594943,5090015435,-10849245007,,
14527151036,1.87971,15939310893,13645390,5250746289,-10688564604,,
14527201533,1.93021,15939361393,13695886,5411636451,-10527724942,,
14527252451,1.98113,15939412311,13746801,5573858416,-10365553895,,
14527303074,2.03175,15939462936,13797423,5735146844,-10204316092,,
14527354122,2.08280,15939513985,13848470,5897786193,-10041727792,,
14527404732,2.13341,15939564595,13899077,6059030015,-9880534580,,
14527455780,2.18446,15939615646,13950125,6221672550,-9717943096,,
14527506804,2.23548,15939666671,14001158,6384270479,-9555396192,,
14527557853,2.28653,15939717721,14052205,6546913014,-9392804707,,
14527608928,2.33760,15939768797,14103267,6709606526,-9230162271,,
14527659976,2.38865,15939819847,14154314,6872245875,-9067573972,,
14527711022,2.43970,15939870894,14205357,7034878851,-8904992043,,
14527762073,2.49075,15939921946,14256406,7197524572,-8742397374,,
14527813123,2.54180,15939972998,14307455,7360176665,-8579796333,,
14527863668,2.59234,15940023544,14357999,7521213389,-8418810155,,
14527914659,2.64333,15940074537,14408987,7683671128,-8256403409,,
14527964803,2.69348,15940124682,14459140,7843465260,-8096659422,,
14528015889,2.74457,15940175770,14510214,8006190634,-7933985136,,
14528066467,2.79514,15940226348,14560790,8167332500,-7772893848,,
14528116863,2.84554,15940276745,14611185,8327897676,-7612379069,,
14528167740,2.89642,15940327625,14662060,8489995382,-7450332243,,
14528218643,2.94732,15940378528,14712961,8652169555,-7288208973,,
14528269673,2.99835,15940429559,14763989,8814751553,-7125678006,,
14528320633,3.04931,15940480521,14814948,8977113708,-6963366813,,
14528371076,3.09975,15940530966,14865390,9137828633,-6802702333,,
14528421687,3.15036,15940581578,14915998,9299075641,-6641505937,,
14528472367,3.20104,15940632260,14966677,9460545679,-6480086581,,
14528522989,3.25167,15940682883,15017297,9621827735,-6318855148,,
14528573515,3.30219,15940733410,15067822,9782803922,-6157929488,,
14528624161,3.35284,15940784058,15118466,9944165631,-5996618427,,
14528674717,3.40339,15940834615,15169021,10105237402,-5835597213,,
14528724801,3.45348,15940884699,15219102,10264802133,-5676082566,,
14528775524,3.50420,15940935425,15269823,10426405988,-5514529437,,
14528825921,3.55460,15940985823,15320219,10586974350,-5354011473,,
14528876822,3.60550,15941036724,15371118,10749145337,-5191891387,,
14528927872,3.65655,15941087776,15422166,10911791058,-5029296718,,
14528978887,3.70756,15941138792,15473180,11074331636,-4866807156,,
14529029441,3.75812,15941189348,15523732,11235397035,-4705792313,,
14529080010,3.80869,15941239918,15574299,11396507040,-4544732878,,
14529130571,3.85925,15941290481,15624859,11557601114,-4383689367,,
14529181125,3.90980,15941341035,15675411,11718666513,-4222674522,,
14529232124,3.96080,15941392037,15726408,11881149741,-4060242296,,
14529282172,4.01085,15941442086,15776454,12040599770,-3900842316,,
14529332258,4.06093,15941492173,15826540,12200180431,-3741311742,,
14529383328,4.11200,15941543244,15877607,12362886689,-3578656555,,
14529433875,4.16255,15941593793,15928153,12523932971,-3417660822,,
14529484423,4.21310,15941644342,15978699,12684979253,-3256665089,,
14529535262,4.26394,15941695183,16029536,12846952700,-3094742483,,
14529585823,4.31450,15941745745,16080095,13008043587,-2933702158,,
14529636394,4.36507,15941796317,16130666,13169166337,-2772629980,,
14529687443,4.41612,15941847368,16181713,13331808871,-2610038497,,
14529738519,4.46720,15941898445,16232787,13494537432,-2447361013,,
14529789323,4.51800,15941949251,16283588,13656399364,-2285549887,,
14529839947,4.56862,15941999875,16334211,13817687792,-2124312083,,
14529890457,4.61913,15942050387,16384720,13978616187,-1963434200,,
14529941351,4.67003,15942101283,16435611,14140764871,-1801336412,,
14529992428,4.72110,15942152361,16486687,14303499804,-1638652557,,
14530043511,4.77219,15942203445,16537768,14466250667,-1475952778,,
14530094061,4.82274,15942253997,16588316,14627303321,-1314950676,,
14530144371,4.87305,15942304308,16638626,14787594490,-1154709818,,
14530194986,4.92366,15942354924,16689238,14948854243,-993500681,,
14530245574,4.97425,15942405513,16739824,15110027970,-832377543,,
14530296164,5.02484,15942456105,16790414,15271246304,-671209801,,
14530346755,5.07543,15942506696,16841001,15432391356,-510115340,,
14530397831,5.12651,15942557775,16892076,15595123102,-347434673,,
14530448437,5.17711,15942608382,16942680,15756354180,-186254202,,
14530499021,5.22770,15942658966,16993263,15917515163,-25143803,,
14530549159,5.27783,15942709107,17043400,15942708740,-367,,
14530599708,5.32838,15942759656,17093946,15942759286,-370,,
14530650265,5.37894,15942810215,17144503,15942809853,-362,,
14530700803,5.42948,15942860755,17195039,15942860379,-376,,
14530751404,5.48008,15942911357,17245637,15942910978,-379,,
14530801589,5.53026,15942961542,17295821,15942961161,-381,,
14530852199,5.58087,15943012155,17346429,15943011770,-385,,
14530903248,5.63192,15943063205,17397477,15943062817,-388,,
14530954289,5.68297,15943114246,17448526,15943113866,-380,,
14531004935,5.73361,15943164895,17499160,15943164501,-394,,
14531055451,5.78413,15943215411,17549674,15943215015,-396,,
14531106275,5.83495,15943266236,17600496,15943265836,-400,,
14531156901,5.88558,15943316865,17651121,15943316461,-404,,
14531207469,5.93614,15943367434,17701687,15943367028,-406,,
14531258463,5.98714,15943418428,17752679,15943418019,-409,,
14531309512,6.03819,15943469480,17803727,15943469068,-412,,
14531360121,6.08880,15943520090,17854335,15943519675,-415,,
14531410679,6.13936,15943570649,17904901,15943570242,-407,,
14531461751,6.19043,15943621722,17955960,15943621300,-422,,
14531512798,6.24147,15943672771,18007007,15943672347,-424,,
14531563819,6.29249,15943723793,18058025,15943723366,-427,,
14531614899,6.34358,15943774874,18109103,15943774443,-431,,
14531665930,6.39461,15943825906,18160133,15943825473,-433,,
14531716523,6.44520,15943876502,18210725,15943876065,-437,,
14531767580,6.49626,15943927560,18261779,15943927120,-440,,
14531818622,6.54730,15943978603,18312819,15943978159,-444,,
14531869205,6.59788,15944029188,18363401,15944028741,-447,,
14531920299,6.64898,15944080282,18414493,15944079834,-448,,
14531970906,6.69958,15944130891,18465098,15944130439,-452,,
14532021469,6.75014,15944181466,18515672,15944181012,-454,,
14532072064,6.80074,15944232051,18566265,15944231605,-446,,
14532123159,6.85184,15944283148,18617346,15944282687,-461,,
14532173738,6.90241,15944333729,18667925,15944333266,-463,,
14532224760,6.95344,15944384752,18718944,15944384285,-467,,
14532275830,7.00451,15944435823,18770012,15944435353,-470,,
14532326879,7.05556,15944486874,18821059,15944486400,-474,,
14532377925,7.10660,15944537925,18872108,15944537449,-476,,
14532428977,7.15765,15944588974,18923154,15944588495,-479,,
14532479995,7.20867,15944639993,18974170,15944639510,-483,,
14532531040,7.25972,15944691040,19025215,15944690555,-485,,
14532581589,7.31027,15944741591,19075761,15944741102,-489,,
14532632178,7.36085,15944792181,19126349,15944791689,-492,,
14532683055,7.41173,15944843059,19177225,15944842565,-494,,
14532733555,7.46223,15944893560,19227722,15944893062,-498,,
14532783659,7.51234,15944943666,19277825,15944943165,-501,,
14532834704,7.56338,15944994712,19328868,15944994208,-504,,
14532885342,7.61402,15945045352,19379505,15945044845,-507,,
14532935959,7.66463,15945095970,19430120,15945095460,-510,,
14532986095,7.71477,15945146106,19480253,15945145593,-513,,
14533037165,7.76584,15945197179,19531322,15945196663,-516,,
14533087856,7.81653,15945247871,19582011,15945247352,-519,,
14533138191,7.86687,15945298207,19632344,15945297685,-522,,
14533188505,7.91718,15945348522,19682657,15945347998,-524,,
14533239542,7.96822,15945399561,19733693,15945399034,-527,,
14533290591,8.01927,15945450610,19784739,15945450080,-530,,
14533341641,8.07032,15945501663,19835787,15945501128,-535,,
14533392689,8.12137,15945552712,19886835,15945552175,-537,,
14533443739,8.17242,15945603762,19937882,15945603222,-540,,
14533494788,8.22346,15945654814,19988929,15945654270,-544,,
14533545836,8.27451,15945705863,20039977,15945705317,-546,,
14533596886,8.32556,15945756914,20091025,15945756365,-549,,
14533647933,8.37661,15945807963,20142070,15945807410,-553,,
14533698986,8.42766,15945859028,20193134,15945858475,-553,,
14533749639,8.47832,15945909671,20243772,15945909113,-558,,
14533800182,8.52886,15945960216,20294314,15945959654,-562,,
14533850803,8.57948,15946010837,20344932,15946010272,-565,,
14533901028,8.62970,15946061063,20395156,15946060497,-566,,
14533951618,8.68029,15946111656,20445745,15946111085,-571,,
14534002657,8.73133,15946162695,20496781,15946162121,-574,,
14534053230,8.78191,15946213271,20547353,15946212693,-578,,
14534103777,8.83245,15946263818,20597898,15946263239,-579,,
14534154572,8.88325,15946314615,20648691,15946314032,-583,,
14534204821,8.93350,15946364866,20698939,15946364280,-586,,
14534255871,8.98455,15946415917,20749987,15946415328,-589,,
14534306914,9.03559,15946466960,20801028,15946466368,-592,,
14534357734,9.08641,15946517782,20851846,15946517186,-596,,
14534408509,9.13719,15946568559,20902620,15946567961,-598,,
14534459150,9.18783,15946619201,20953260,15946618600,-601,,
14534510095,9.23877,15946670147,21004201,15946669542,-605,,
14534560632,9.28931,15946720687,21054740,15946720081,-606,,
14534611633,9.34031,15946771688,21105738,15946771078,-610,,
14534662676,9.39135,15946822732,21156778,15946822119,-613,,
14534713203,9.44188,15946873261,21207305,15946872646,-615,,
14534763801,9.49248,15946923860,21257901,15946923241,-619,,
14534814358,9.54303,15946974418,21308455,15946973795,-623,,
14534864963,9.59364,15947025025,21359059,15947024399,-626,,
14534915487,9.64416,15947075560,21409592,15947074933,-627,,
14534966518,9.69519,15947126583,21460611,15947125951,-632,,
14535016825,9.74550,15947176891,21510916,15947176256,-635,,
14535067468,9.79614,15947227535,21561558,15947226898,-637,,
14535118063,9.84674,15947278132,21612150,15947277491,-641,,
14535168890,9.89757,15947328960,21662977,15947328317,-643,,
14535219494,9.94817,15947379566,21713580,15947378920,-646,,
14535270555,9.99923,15947430628,21764638,15947429978,-650,,
14535321588,10.05026,15947481662,21815669,15947481009,-653,,
14535372660,10.10134,15947532734,21866738,15947532078,-656,,
14535423709,10.15239,15947583786,21917787,15947583128,-658,,
14535474757,10.20343,15947634835,21968833,15947634173,-662,,
14535525808,10.25448,15947685887,22019881,15947685221,-666,,
14535760933,10.48961,15947921018,22254998,15947920338,-680,15947920995,
14535786277,10.51495,15947946373,22280353,15947945696,-677,,
14535837124,10.56580,15947997211,22331187,15947996537,-674,,
14535887680,10.61636,15948047769,22381742,15948047097,-672,,
14535938240,10.66692,15948098330,22432299,15948097662,-668,,
14535989109,10.71778,15948149201,22483167,15948148537,-664,,
14536039682,10.76836,15948199775,22533738,15948199114,-661,,
14536089781,10.81846,15948249875,22583836,15948249218,-657,,
14536140817,10.86949,15948300913,22634871,15948300260,-653,,
14536191836,10.92051,15948351933,22685887,15948351284,-649,,
14536242706,10.97138,15948402805,22736755,15948402158,-647,,
14536293149,11.02182,15948453249,22787197,15948452606,-643,,
14536343724,11.07240,15948503825,22837771,15948503187,-638,,
14536394379,11.12306,15948554482,22888424,15948553846,-636,,
14536444866,11.17354,15948604970,22938910,15948604340,-630,,
14536495495,11.22417,15948655600,22989537,15948654973,-627,,
14536545786,11.27446,15948705893,23039826,15948705268,-625,,
14536596366,11.32504,15948756474,23090403,15948755853,-621,,
14536646933,11.37561,15948807052,23140980,15948806437,-615,,
14536697674,11.42635,15948857785,23191708,15948857171,-614,,
14536748210,11.47689,15948908321,23242242,15948907711,-610,,
14536802978,11.53165,15948963091,23297009,15948962486,-605,,
14536853095,11.58177,15949013210,23347124,15949012608,-602,,
14536903398,11.63207,15949063514,23397426,15949062915,-599,,
14536954028,11.68270,15949114144,23448053,15949113549,-595,,
14537004593,11.73327,15949164711,23498617,15949164120,-591,,
14537055132,11.78381,15949215251,23549153,15949214663,-588,,
14537105454,11.83413,15949265575,23599475,15949264991,-584,,
14537155809,11.88448,15949315931,23649828,15949315351,-580,,
14537207964,11.93664,15949368088,23701981,15949367512,-576,,
14537258171,11.98685,15949418296,23752187,15949417723,-573,,
14537308930,12.03761,15949469057,23802944,15949468488,-569,,
14537359058,12.08773,15949519186,23853070,15949518621,-565,,
14537409395,12.13807,15949569524,23903405,15949568962,-562,,
14537459648,12.18832,15949619779,23953657,15949619221,-558,,
14537510001,12.23868,15949670132,24004008,15949669579,-553,,
14537560307,12.28898,15949720439,24054312,15949719888,-551,,
14537610619,12.33929,15949770754,24104623,15949770206,-548,,
14537660949,12.38963,15949821085,24154951,15949820541,-544,,
14537711669,12.44035,15949871806,24205670,15949871266,-540,,
14537762321,12.49100,15949922460,24256320,15949921923,-537,,
14537813108,12.54178,15949973248,24307105,15949972715,-533,,
14537863714,12.59239,15950023855,24357709,15950023325,-530,,
14537914264,12.64294,15950074407,24408258,15950073881,-526,,
14537964826,12.69350,15950124970,24458819,15950124449,-521,,
14538015857,12.74453,15950176003,24509848,15950175484,-519,,
14538066174,12.79485,15950226320,24560162,15950225805,-515,,
14538116977,12.84565,15950277125,24610965,15950276615,-510,,
14538167679,12.89635,15950327828,24661664,15950327321,-507,,
14538218242,12.94692,15950378394,24712226,15950377890,-504,,
14538269297,12.99797,15950429449,24763279,15950428949,-500,,
14538319590,13.04827,15950479743,24813570,15950479247,-496,,
14538370247,13.09892,15950530402,24864225,15950529909,-493,,
14538420574,13.14925,15950580729,24914550,15950580240,-489,,
14538471386,13.20006,15950631544,24965361,15950631058,-486,,
14538521621,13.25030,15950681779,25015594,15950681297,-482,,
14538571955,13.30063,15950732114,25065925,15950731636,-478,,
14538622416,13.35109,15950782577,25116386,15950782102,-475,,
14538672539,13.40122,15950832702,25166508,15950832231,-471,,
14538723278,13.45195,15950883442,25217245,15950882975,-467,,
14538773503,13.50218,15950933668,25267468,15950933205,-463,,
14538823860,13.55254,15950984027,25317823,15950983566,-461,,
14538874083,13.60276,15951034251,25368045,15951033796,-455,,
14538924551,13.65323,15951084720,25418510,15951084267,-453,,
14538975225,13.70390,15951135395,25469183,15951134946,-449,,
14539025596,13.75427,15951185768,25519553,15951185324,-444,,
14539075690,13.80437,15951235864,25569645,15951235422,-442,,
14539126064,13.85474,15951286239,25620018,15951285802,-437,,
14539176794,13.90547,15951336970,25670745,15951336536,-434,,
14539227578,13.95625,15951387756,25721527,15951387324,-432,,
14539278304,14.00698,15951438482,25772252,15951438055,-427,,
14539328567,14.05724,15951488747,25822514,15951488324,-423,,
14539379591,14.10827,15951539783,25873546,15951539363,-420,,
14539430049,14.15873,15951590232,25923993,15951589816,-416,,
14539480742,14.20942,15951640925,25974683,15951640513,-412,,
14539531411,14.26009,15951691597,26025351,15951691188,-409,,
14539582075,14.31075,15951742262,26076012,15951741856,-406,,
14539632430,14.36111,15951792617,26126366,15951792216,-401,,
14539682522,14.41120,15951842712,26176456,15951842313,-399,,
14539733106,14.46178,15951893297,26227039,15951892902,-395,,
14539783366,14.51204,15951943558,26277297,15951943168,-390,,
14539833487,14.56216,15951993692,26327428,15951993305,-387,,
14539883963,14.61264,15952044158,26377890,15952043774,-384,,
14539934848,14.66352,15952095043,26428774,15952094664,-379,,
14539985578,14.71425,15952145776,26479503,15952145399,-377,,
14540036124,14.76480,15952196323,26530047,15952195950,-373,,
14540086493,14.81517,15952246692,26580414,15952246325,-367,,
14540137070,14.86575,15952297272,26630989,15952296906,-366,,
14540187790,14.91647,15952347992,26681707,15952347631,-361,,
14540238751,14.96743,15952398955,26732667,15952398597,-358,,
14540289067,15.01774,15952449272,26782981,15952448918,-354,,
14540339383,15.06806,15952499589,26833295,15952499239,-350,,
14540389611,15.11829,15952549818,26883521,15952549471,-347,,
14540439903,15.16858,15952600113,26933812,15952599769,-344,,
14540490519,15.21919,15952650729,26984426,15952650389,-340,,
14540540638,15.26931,15952700850,27034543,15952700514,-336,,
14540590944,15.31962,15952751157,27084848,15952750824,-333,,
14540641294,15.36997,15952801508,27135196,15952801179,-329,,
14540691607,15.42028,15952851823,27185507,15952851497,-326,,
14540741895,15.47057,15952902112,27235794,15952901791,-321,,
