Server clock before sync: 34
Synchronizing server_clock...
[1/51] [2/51] [3/51] [4/51] [5/51] [6/51] [7/51] [8/51] [9/51] [10/51] 
[11/51] [12/51] [13/51] [14/51] [15/51] [16/51] [17/51] [18/51] [19/51] [20/51] 
[21/51] [22/51] [23/51] [24/51] [25/51] [26/51] [27/51] [28/51] [29/51] [30/51] 
[31/51] [32/51] [33/51] [34/51] [35/51] [36/51] [37/51] [38/51] [39/51] [40/51] 
[41/51] [42/51] [43/51] [44/51] [45/51] [46/51] [47/51] [48/51] [49/51] [50/51] 
Best Server Sync RTT: 234604, Worst Server Sync RTT: 236926
Average RTT: 234884.440000
Est Server Time: 15937421141, Computed Server Time offset: 15925676578
Server clock after sync: 15937421142

====== SIMULATION METADATA     =====
Server IP: 128.83.139.94, Port: 8030
Server Drift: 30.00 PPM, Client VHC Drift: -30.00 PPM
Relative Drift Weight: -3.50
Local Server Time Error: 117302
Rapport Period: 30000000
Amortization Period: 5000000
Simulation runtime: 1800 seconds
Simulation runtime: 1800000000 usec, 
 Start: 14525261396, End: 16325261396
====== SIMULATION OUTPUT START =====
Current Real Time,Real Time Elapsed (sec),Local Server Time,Hardware Clock Time,Software Clock Time,Error,Remote Est Time,
14525261560,0.00016,15937421308,11744027,11744027,-15925677281,,
14525496400,0.23500,15937656154,11978859,11978860,-15925677294,15937656195,
14525521706,0.26031,15937681461,12004164,92610387,-15845071074,,
14525572155,0.31076,15937731911,12054612,253344549,-15684387362,,
14525622746,0.36135,15937782504,12105200,414524771,-15523257733,,
14525672819,0.41142,15937832577,12155272,574057760,-15363774817,,
14525722972,0.46158,15937882732,12205435,733883873,-15203998859,,
14525774042,0.51265,15937933803,12256491,896555205,-15041378598,,
14525824646,0.56325,15937984410,12307096,1057792777,-14880191633,,
14525875238,0.61384,15938035002,12357684,1218972998,-14719062004,,
14525926373,0.66498,15938086184,12408863,1382033039,-14556053145,,
14525977816,0.71642,15938137582,12460259,1545787657,-14392349925,,
14526027899,0.76650,15938187668,12510341,1705355694,-14232831974,,
14526078531,0.81713,15938238300,12560970,1866666546,-14071571754,,
14526129161,0.86777,15938288931,12611598,2027974213,-13910314718,,
14526179763,0.91837,15938339536,12662199,2189199040,-13749140496,,
14526230788,0.96939,15938390562,12713223,2351765230,-13586625332,,
14526281826,1.02043,15938441601,12764259,2514372840,-13424068761,,
14526332877,1.07148,15938492653,12815308,2677021869,-13261470784,,
14526383934,1.12254,15938543712,12866363,2839693201,-13098850511,,
14526434973,1.17358,15938594751,12917400,3002300811,-12936293940,,
14526486008,1.22461,15938645789,12968435,3164905235,-12773740554,,
14526536563,1.27517,15938696345,13018987,3325973941,-12612722404,,
14526587108,1.32571,15938746891,13069530,3487010786,-12451736105,,
14526638152,1.37676,15938797936,13120572,3649637513,-12289160423,,
14526688713,1.42732,15938848498,13171132,3810725336,-12128123162,,
14526739765,1.47837,15938899552,13222182,3973380737,-11965518815,,
14526790858,1.52946,15938950646,13273273,4136163585,-11802787061,,
14526841556,1.58016,15939001347,13323971,4297694281,-11641307066,,
14526892142,1.63075,15939051933,13374554,4458858571,-11480193362,,
14526942311,1.68091,15939102103,13424721,4618694243,-11320407860,,
14526993321,1.73192,15939153114,13475730,4781215827,-11157937287,,
14527043858,1.78246,15939203653,13526266,4942230369,-10996973284,,
14527094063,1.83267,15939253860,13576469,5102183928,-10837069932,,
14527144503,1.88311,15939304312,13626917,5262921276,-10676383036,,
14527195553,1.93416,15939355352,13677955,5425532072,-10513823280,,
14527246459,1.98506,15939406260,13728859,5587722298,-10351683962,,
14527297044,2.03565,15939456846,13779442,5748921636,-10190535210,,
14527347612,2.08622,15939507415,13830009,5909996714,-10029510701,,
14527398225,2.13683,15939558030,13880620,6071250216,-9868307814,,
14527449271,2.18788,15939609077,13931664,6233886501,-9705722576,,
14527500324,2.23893,15939660132,13982716,6396545089,-9543115043,,
14527551373,2.28998,15939711181,14033763,6559187746,-9380523435,,
14527602409,2.34101,15939762219,14084798,6721792170,-9217970049,,
14527653457,2.39206,15939813270,14135845,6884434827,-9055378443,,
14527704495,2.44310,15939864320,14186893,7047080670,-8892783650,,
14527755530,2.49413,15939915343,14237913,7209634116,-8730281227,,
14527806074,2.54468,15939965890,14288455,7370670961,-8569294929,,
14527856652,2.59526,15940016469,14339033,7531819321,-8408197148,,
14527907678,2.64628,15940067496,14390057,7694385510,-8245681986,,
14527957790,2.69639,15940117609,14440166,7854039573,-8086078036,,
14528008867,2.74747,15940168688,14491242,8016777814,-7923390874,,
14528059422,2.79803,15940219244,14541795,8177846520,-7762372724,,
14528110079,2.84868,15940269903,14592450,8339240212,-7601029691,,
14528160233,2.89884,15940320058,14642602,8499031278,-7441288780,,
14528211117,2.94972,15940370943,14693485,8661151409,-7279219534,,
14528262185,3.00079,15940422013,14744551,8823851417,-7116570596,,
14528313128,3.05173,15940472957,14795492,8986159530,-6954313427,,
14528363523,3.10213,15940523353,14845887,9146721641,-6793801712,,
14528413679,3.15228,15940573511,14896041,9306519079,-6634054432,,
14528463839,3.20244,15940623683,14946210,9466367495,-6474256188,,
14528514478,3.25308,15940674312,14996837,9627668790,-6313005522,,
14528565480,3.30408,15940725315,15047835,9790158512,-6150566803,,
14528616153,3.35476,15940775990,15098507,9951606369,-5989169621,,
14528666701,3.40530,15940826538,15149053,10112649586,-5828176952,,
14528716774,3.45538,15940876623,15199135,10272217622,-5668659001,,
14528766916,3.50552,15940926757,15249265,10431941779,-5508984978,,
14528817914,3.55652,15940977755,15300260,10594418758,-5346558997,,
14528868794,3.60740,15941028637,15351140,10756526144,-5184502493,,
14528919867,3.65847,15941079711,15402211,10919245269,-5021834442,,
14528970859,3.70946,15941130706,15453201,11081709502,-4859421204,,
14529020940,3.75954,15941180798,15503292,11241303028,-4699877770,,
14529071501,3.81011,15941231350,15553840,11402358990,-4538872360,,
14529121620,3.86022,15941281470,15603957,11562035355,-4379246115,,
14529172115,3.91072,15941331967,15654452,11722919265,-4218412702,,
14529223173,3.96178,15941383026,15705507,11885590597,-4055792429,,
14529273703,4.01231,15941433567,15756045,12046611512,-3894822055,,
14529324224,4.06283,15941484080,15806554,12207536842,-3733947238,,
14529374783,4.11339,15941534640,15857112,12368624665,-3572909975,,
14529425345,4.16395,15941585214,15907683,12529747536,-3411837678,,
14529476415,4.21502,15941636275,15958740,12692425240,-3249211035,,
14529527047,4.26565,15941686908,16009372,12853742465,-3087944443,,
14529577802,4.31641,15941737675,16060135,13015480260,-2926257415,,
14529628381,4.36698,15941788244,16110701,13176590386,-2765197858,,
14529678999,4.41760,15941838864,16161318,13337863005,-2603975859,,
14529730005,4.46861,15941889872,16212322,13500371844,-2441518028,,
14529780810,4.51941,15941940677,16263125,13662233899,-2279706778,,
14529831859,4.57046,15941991727,16314172,13824876556,-2117115171,,
14529882472,4.62108,15942042343,16364785,13986136430,-1955905913,,
14529933359,4.67196,15942093230,16415669,14148259747,-1793833483,,
14529984420,4.72302,15942144293,16466729,14310943824,-1631200469,,
14530035000,4.77360,15942194875,16517307,14472095370,-1470099505,,
14530086056,4.82466,15942245932,16568362,14634760330,-1307485602,,
14530136380,4.87498,15942296256,16618693,14795121714,-1147174542,,
14530187002,4.92561,15942346881,16669304,14956378403,-985968478,,
14530237543,4.97615,15942397433,16719854,15117437551,-824959882,,
14530288143,5.02675,15942448024,16770441,15278614586,-663833438,,
14530338770,5.07737,15942498652,16821066,15439909507,-502589145,,
14530389819,5.12842,15942549703,16872115,15602558537,-339991166,,
14530440386,5.17899,15942600271,16922679,15763665477,-178934794,,
14530490489,5.22909,15942650376,16972781,15923294050,-19356326,,
14530540629,5.27923,15942700516,17022919,15942700256,-260,,
14530591196,5.32980,15942751085,17073485,15942750822,-263,,
14530641757,5.38036,15942801648,17124043,15942801381,-267,,
14530692293,5.43090,15942852184,17174578,15942851915,-269,,
14530742418,5.48102,15942902311,17224702,15942902039,-272,,
14530792561,5.53116,15942952455,17274852,15942952190,-265,,
14530843176,5.58178,15943003071,17325456,15943002793,-278,,
14530893739,5.63234,15943053636,17376018,15943053355,-281,,
14530944793,5.68340,15943104692,17427080,15943104417,-275,,
14530995412,5.73402,15943155312,17477686,15943155024,-288,,
14531046416,5.78502,15943206317,17528689,15943206026,-291,,
14531097291,5.83589,15943257204,17579573,15943256910,-294,,
14531147871,5.88647,15943307775,17630140,15943307478,-297,,
14531198439,5.93704,15943358356,17680718,15943358056,-300,,
14531248962,5.98757,15943408869,17731228,15943408566,-303,,
14531300003,6.03861,15943459911,17782268,15943459605,-306,,
14531350613,6.08922,15943510522,17832876,15943510213,-309,,
14531401664,6.14027,15943561575,17883925,15943561263,-312,,
14531452739,6.19134,15943612651,17934998,15943612335,-316,,
14531503757,6.24236,15943663670,17986014,15943663351,-319,,
14531554282,6.29289,15943714197,18036539,15943713876,-321,,
14531604389,6.34299,15943764305,18086644,15943763981,-324,,
14531654965,6.39357,15943814883,18137218,15943814555,-328,,
14531705491,6.44409,15943865410,18187742,15943865089,-321,,
14531756561,6.49517,15943916481,18238810,15943916148,-333,,
14531807609,6.54621,15943967531,18289857,15943967194,-337,,
14531858220,6.59682,15944018142,18340466,15944017803,-339,,
14531908952,6.64756,15944068876,18391197,15944068534,-342,,
14531959834,6.69844,15944119759,18442076,15944119413,-346,,
14532009981,6.74859,15944169907,18492221,15944169558,-349,,
14532060573,6.79918,15944220500,18542812,15944220149,-351,,
14532111624,6.85023,15944271554,18593862,15944271199,-355,,
14532162189,6.90079,15944322119,18644424,15944321761,-358,,
14532212771,6.95137,15944372703,18695005,15944372343,-360,,
14532263818,7.00242,15944423751,18746050,15944423387,-364,,
14532314366,7.05297,15944474300,18796596,15944473933,-367,,
14532365384,7.10399,15944525320,18847613,15944524951,-369,,
14532415964,7.15457,15944575902,18898191,15944575529,-373,,
14532467014,7.20562,15944626952,18949239,15944626576,-376,,
14532518018,7.25662,15944677958,19000241,15944677578,-380,,
14532569076,7.30768,15944729018,19051299,15944728636,-382,,
14532620154,7.35876,15944780097,19102374,15944779712,-385,,
14532671230,7.40983,15944831175,19153448,15944830785,-390,,
14532721556,7.46016,15944881501,19203773,15944881110,-391,,
14532772062,7.51067,15944932008,19254277,15944931614,-394,,
14532822224,7.56083,15944982172,19304437,15944981774,-398,,
14532872806,7.61141,15945032755,19355018,15945032355,-400,,
14532923427,7.66203,15945083378,19405637,15945082975,-403,,
14532974064,7.71267,15945134017,19456272,15945133610,-407,,
14533024648,7.76325,15945184601,19506854,15945184191,-410,,
14533075119,7.81372,15945235073,19557324,15945234661,-412,,
14533125717,7.86432,15945285684,19607931,15945285268,-416,,
14533176320,7.91492,15945336277,19658521,15945335859,-418,,
14533227025,7.96563,15945386984,19709225,15945386563,-421,,
14533278074,8.01668,15945438034,19760272,15945437609,-425,,
14533329123,8.06773,15945489085,19811320,15945488657,-428,,
14533380173,8.11878,15945540135,19862368,15945539706,-429,,
14533431208,8.16981,15945591172,19913401,15945590738,-434,,
14533482259,8.22086,15945642224,19964450,15945641787,-437,,
14533533303,8.27191,15945693269,20015503,15945692841,-428,,
14533584369,8.32297,15945744337,20066557,15945743894,-443,,
14533635417,8.37402,15945795387,20117603,15945794941,-446,,
14533686449,8.42505,15945846419,20168633,15945845970,-449,,
14533736557,8.47516,15945896529,20218740,15945896077,-452,,
14533787149,8.52575,15945947122,20269330,15945946667,-455,,
14533837781,8.57639,15945997756,20319960,15945997298,-458,,
14533888383,8.62699,15946048359,20370561,15946047898,-461,,
14533938603,8.67721,15946098581,20420779,15946098117,-464,,
14533989651,8.72826,15946149631,20471825,15946149163,-468,,
14534040249,8.77885,15946200229,20522421,15946199758,-471,,
14534091267,8.82987,15946251249,20573438,15946250776,-473,,
14534141862,8.88047,15946301845,20624031,15946301368,-477,,
14534191986,8.93059,15946351971,20674153,15946351491,-480,,
14534242857,8.98146,15946402842,20725023,15946402360,-482,,
14534293898,9.03250,15946453886,20776062,15946453399,-487,,
14534344458,9.08306,15946504446,20826620,15946503957,-489,,
14534395477,9.13408,15946555467,20877638,15946554975,-492,,
14534445576,9.18418,15946605568,20927735,15946605073,-495,,
14534495659,9.23426,15946655662,20977827,15946655164,-498,,
14534548118,9.28672,15946708111,21030273,15946707610,-501,,
14534598678,9.33728,15946758673,21080832,15946758169,-504,,
14534649676,9.38828,15946809673,21131829,15946809166,-507,,
14534700750,9.43935,15946860748,21182901,15946860238,-510,,
14534751250,9.48985,15946911249,21233399,15946910736,-513,,
14534801871,9.54048,15946961872,21284019,15946961357,-515,,
14534852929,9.59153,15947012931,21335087,15947012424,-507,,
14534903975,9.64258,15947063979,21386119,15947063457,-522,,
14534955032,9.69364,15947115036,21437185,15947114522,-514,,
14535006049,9.74465,15947166055,21488189,15947165526,-529,,
14535056643,9.79525,15947216651,21538781,15947216119,-532,,
14535107543,9.84615,15947267552,21589680,15947267018,-534,,
14535158453,9.89706,15947318463,21640589,15947317926,-537,,
14535208948,9.94755,15947368960,21691082,15947368419,-541,,
14535259543,9.99815,15947419555,21741675,15947419012,-543,,
14535310595,10.04920,15947470610,21792725,15947470063,-547,,
14535361608,10.10021,15947521624,21843737,15947521074,-550,,
14535412179,10.15078,15947572196,21894306,15947571644,-552,,
14535463223,10.20183,15947623253,21945361,15947622699,-554,,
14535514297,10.25290,15947674316,21996420,15947673757,-559,,
14535565345,10.30395,15947725366,22047466,15947724804,-562,,
14535616387,10.35499,15947776410,22098508,15947775845,-565,,
14535680011,10.41862,15947840035,22162130,15947839468,-567,,
14535730785,10.46939,15947890810,22212901,15947890238,-572,,
14535781298,10.51990,15947941324,22263412,15947940749,-575,,
14535831627,10.57023,15947991654,22313739,15947991076,-578,,
14535882187,10.62079,15948042227,22364308,15948041646,-581,,
14535932762,10.67137,15948092793,22414871,15948092209,-584,,
14535983583,10.72219,15948143615,22465690,15948143028,-587,,
14536033668,10.77227,15948193702,22515774,15948193112,-590,,
14536083767,10.82237,15948243803,22565872,15948243209,-594,,
14536134451,10.87306,15948294487,22616554,15948293891,-596,,
14536188683,10.92729,15948348722,22670785,15948348123,-599,,
14536239712,10.97832,15948399751,22721812,15948399149,-602,,
14536290666,11.02927,15948450706,22772763,15948450101,-605,,
14536341260,11.07986,15948501301,22823355,15948500692,-609,,
14536391836,11.13044,15948551878,22873930,15948551268,-610,,
14536442954,11.18156,15948602998,22925046,15948602383,-615,,
14536493541,11.23214,15948653586,22975631,15948652968,-618,,
14536544311,11.28291,15948704357,23026400,15948703738,-619,,
14536594889,11.33349,15948754937,23076976,15948754314,-623,,
14536645435,11.38404,15948805484,23127520,15948804857,-627,,
14536696193,11.43480,15948856244,23178277,15948855615,-629,,
14536747230,11.48583,15948907282,23229312,15948906650,-632,,
14536802984,11.54159,15948963037,23285064,15948962401,-636,,
14536854083,11.59269,15949014149,23336173,15949013510,-639,,
14536904386,11.64299,15949064443,23386463,15949063801,-642,,
14536955044,11.69365,15949115113,23437130,15949114468,-645,,
14537005583,11.74419,15949165653,23487668,15949165006,-647,,
14537056131,11.79473,15949216191,23538202,15949215540,-651,,
14537106469,11.84507,15949266531,23588540,15949265877,-654,,
14537156789,11.89539,15949316852,23638857,15949316194,-658,,
14537208044,11.94665,15949368108,23690110,15949367447,-661,,
14537258684,11.99729,15949418749,23740749,15949418086,-663,,
14537309419,12.04802,15949469497,23791493,15949468831,-666,,
14537359547,12.09815,15949519616,23841609,15949518946,-670,,
14537409869,12.14847,15949569939,23891929,15949569267,-672,,
14537460170,12.19877,15949620241,23942229,15949619566,-675,,
14537510507,12.24911,15949670579,23992563,15949669901,-678,,
14537560817,12.29942,15949720891,24042872,15949720210,-681,,
14537611138,12.34974,15949771213,24093191,15949770529,-684,,
14537661481,12.40009,15949821557,24143532,15949820869,-688,,
14537712156,12.45076,15949872233,24194204,15949871542,-691,,
14537762796,12.50140,15949922875,24244844,15949922181,-694,,
14537813600,12.55220,15949973681,24295646,15949972984,-697,,
14537864206,12.60281,15950024287,24346249,15950023598,-689,,
14537914739,12.65334,15950074822,24396781,15950074119,-703,,
14537965309,12.70391,15950125393,24447350,15950124687,-706,,
14538015873,12.75448,15950175958,24497912,15950175249,-709,,
14538066169,12.80477,15950226256,24548207,15950225544,-712,,
14538116977,12.85558,15950277065,24599012,15950276350,-715,,
14538167697,12.90630,15950327787,24649731,15950327068,-719,,
14538218237,12.95684,15950378328,24700269,15950377607,-721,,
14538268799,13.00740,15950428891,24750830,15950428167,-724,,
14538319084,13.05769,15950479178,24801113,15950478451,-727,,
14538369734,13.10834,15950529830,24851761,15950529099,-731,,
14538420077,13.15868,15950580173,24902103,15950579441,-732,,
14538470894,13.20950,15950630992,24952918,15950630256,-736,,
14538521120,13.25972,15950681220,25003142,15950680480,-740,,
14538571457,13.31006,15950731558,25053478,15950730816,-742,,
14538621945,13.36055,15950782046,25103963,15950781301,-745,,
14538672532,13.41114,15950832635,25154548,15950831886,-749,,
14538722794,13.46140,15950882898,25204810,15950882148,-750,,
14538773488,13.51209,15950933593,25255502,15950932839,-754,,
14538823870,13.56247,15950983977,25305882,15950983219,-758,,
14538874579,13.61318,15951034687,25356590,15951033927,-760,,
14538925053,13.66366,15951085162,25407062,15951084400,-762,,
14538975714,13.71432,15951135826,25457721,15951135059,-767,,
14539026102,13.76471,15951186214,25508107,15951185445,-769,,
14539076192,13.81480,15951236305,25558196,15951235534,-771,,
14539126560,13.86516,15951286676,25608562,15951285900,-776,,
14539177293,13.91590,15951337409,25659293,15951336630,-779,,
14539227563,13.96617,15951387681,25709562,15951386900,-781,,
14539277793,14.01640,15951437913,25759791,15951437128,-785,,
14539328045,14.06665,15951488166,25810040,15951487378,-788,,
14539379115,14.11772,15951539237,25861110,15951538447,-790,,
14539429548,14.16815,15951589672,25911540,15951588878,-794,,
14539480240,14.21884,15951640365,25962231,15951639568,-797,,
14539530411,14.26901,15951690537,26012400,15951689737,-800,,
14539581076,14.31968,15951741204,26063063,15951740400,-804,,
14539631424,14.37003,15951791553,26113410,15951790747,-806,,
14539681521,14.42013,15951841651,26163504,15951840842,-809,,
14539732109,14.47071,15951892241,26214092,15951891429,-812,,
14539782380,14.52098,15951942513,26264360,15951941697,-816,,
14539832986,14.57159,15951993119,26314964,15951992301,-818,,
14539883470,14.62207,15952043606,26365448,15952042785,-821,,
14539934348,14.67295,15952094484,26416323,15952093660,-824,,
14539985036,14.72364,15952145174,26467009,15952144347,-827,,
14540035634,14.77424,15952195774,26517607,15952194944,-830,,
14540085978,14.82458,15952246119,26567949,15952245287,-832,,
14540136544,14.87515,15952296686,26618524,15952295862,-824,,
14540187295,14.92590,15952347439,26669262,15952346600,-839,,
14540238224,14.97683,15952398369,26720189,15952397527,-842,,
14540288544,15.02715,15952448690,26770507,15952447845,-845,,
14540338863,15.07747,15952499011,26820824,15952498162,-849,,
14540389127,15.12773,15952549275,26871087,15952548424,-851,,
14540439416,15.17802,15952599566,26921375,15952598712,-854,,
14540490052,15.22866,15952650203,26972008,15952649345,-858,,
14540540637,15.27924,15952700790,27022593,15952699930,-860,,
14540590957,15.32956,15952751111,27072910,15952750248,-863,,
