Server clock before sync: 40
Synchronizing server_clock...
[1/51] [2/51] [3/51] [4/51] [5/51] [6/51] [7/51] [8/51] [9/51] [10/51] 
[11/51] [12/51] [13/51] [14/51] [15/51] [16/51] [17/51] [18/51] [19/51] [20/51] 
[21/51] [22/51] [23/51] [24/51] [25/51] [26/51] [27/51] [28/51] [29/51] [30/51] 
[31/51] [32/51] [33/51] [34/51] [35/51] [36/51] [37/51] [38/51] [39/51] [40/51] 
[41/51] [42/51] [43/51] [44/51] [45/51] [46/51] [47/51] [48/51] [49/51] [50/51] 
Best Server Sync RTT: 17825, Worst Server Sync RTT: 21404
Average RTT: 18379.520000
Est Server Time: 621467000, Computed Server Time offset: 620547548
Server clock after sync: 621467002

====== SIMULATION METADATA     =====
Server IP: 128.83.139.94, Port: 8030
Server Drift: 30.00 PPM, Client VHC Drift: -30.00 PPM
Relative Drift Weight: -3.50
Local Server Time Error: 8912
Rapport Period: 50000000
Amortization Period: 5000000
Simulation runtime: 1800 seconds
Simulation runtime: 1800000000 usec, 
 Start: 253790621, End: 2053790621
====== SIMULATION OUTPUT START =====
Current Real Time,Real Time Elapsed (sec),Local Server Time,Hardware Clock Time,Software Clock Time,Error,Remote Est Time,
253790857,0.00024,621467238,919636,919636,-620547602,,
253808924,0.01830,621485306,937702,937703,-620547603,621485310,
253860007,0.06939,621536390,988783,7328545,-614207845,,
253910584,0.11996,621586970,1039359,13655959,-607931011,,
253960797,0.17018,621637184,1089570,19937959,-601699225,,
254011003,0.22038,621687390,1139775,26218957,-595468433,,
254061650,0.27103,621738039,1190420,32555129,-589182910,,
254111785,0.32116,621788175,1240553,38827245,-582960930,,
254162335,0.37171,621838726,1291101,45151406,-576687320,,
254212433,0.42181,621888827,1341199,51419018,-570469809,,
254262537,0.47192,621938931,1391300,57687130,-564251801,,
254312700,0.52208,621989095,1441462,63962874,-558026221,,
254363033,0.57241,622039430,1491793,70259761,-551779669,,
254413340,0.62272,622089739,1542098,76553520,-545536219,,
254463537,0.67292,622139937,1592295,82833518,-539306419,,
254514003,0.72338,622190405,1642758,89147045,-533043360,,
254564629,0.77401,622241031,1693382,95480464,-526760567,,
254615203,0.82458,622291607,1743955,101807753,-520483854,,
254665369,0.87475,622341785,1794129,108084998,-514256787,,
254715589,0.92497,622391996,1844348,114367873,-508024123,,
254765765,0.97514,622442172,1894512,120643742,-501798430,,
254816410,1.02579,622492830,1945165,126981040,-495511790,,
254867506,1.07689,622543916,1996249,133372010,-489171906,,
254917631,1.12701,622594043,2046373,139642999,-482951044,,
254967892,1.17727,622644306,2096642,145932255,-476712051,,
255018093,1.22747,622694507,2146831,152211252,-470483255,,
255068611,1.27799,622745026,2197347,158531284,-464213742,,
255119201,1.32858,622795629,2247946,164861826,-457933803,,
255169629,1.37901,622846048,2298362,171169348,-451676700,,
255219945,1.42932,622896365,2348676,177465485,-445430880,,
255270566,1.47995,622946987,2399296,183797027,-439149960,,
255320897,1.53028,622997320,2449625,190093664,-432903656,,
255371422,1.58080,623047846,2500149,196414698,-426633148,,
255421959,1.63134,623098385,2550684,202737233,-420361152,,
255472085,1.68146,623148523,2600820,209009598,-414138925,,
255522501,1.73188,623198929,2651222,215315494,-407883435,,
255572629,1.78201,623249058,2701349,221586734,-401662324,,
255622751,1.83213,623299182,2751479,227858474,-395440708,,
255673347,1.88273,623349779,2802073,234188390,-389161389,,
255723484,1.93286,623399918,2852198,240459380,-382940538,,
255773652,1.98303,623450097,2902376,246737125,-376712972,,
255824231,2.03361,623500667,2952942,253063539,-370437128,,
255874337,2.08372,623550775,3003047,259332026,-364218749,,
255924427,2.13381,623600875,3053145,265599763,-358001112,,
255974555,2.18393,623650994,3103261,271869752,-351781242,,
256025179,2.23456,623701621,3153883,278203171,-345498450,,
256075792,2.28517,623752235,3204496,284535214,-339217021,,
256126564,2.33594,623803008,3255276,290888401,-332914607,,
256176778,2.38616,623853224,3305477,297169024,-326684200,,
256227338,2.43672,623903784,3356036,303494311,-320409473,,
256277840,2.48722,623954288,3406547,309813843,-314140445,,
256328013,2.53739,624004473,3456717,316090588,-307913885,,
256378635,2.58801,624055086,3507329,322422506,-301632580,,
256428764,2.63814,624105216,3557455,328693871,-295411345,,
256478885,2.68826,624155339,3607574,334964235,-289191104,,
256529329,2.73871,624205784,3658016,341275010,-282930774,,
256579757,2.78914,624256212,3708443,347583782,-276672430,,
256630464,2.83984,624306921,3759148,353928837,-270378084,,
256680621,2.89000,624357079,3809303,360202329,-264154750,,
256730775,2.94015,624407235,3859457,366477072,-257930163,,
256781369,2.99075,624457831,3910049,372806613,-251651218,,
256831986,3.04136,624508460,3960675,379140532,-245367928,,
256882167,3.09155,624558641,4010854,385418278,-239140363,,
256932345,3.14172,624608811,4061019,391694522,-232914289,,
256983235,3.19261,624659702,4111907,398061096,-226598606,,
257033820,3.24320,624710288,4162492,404389761,-220320527,,
257084415,3.29379,624760885,4213085,410719302,-214041583,,
257135535,3.34491,624812006,4264203,417114650,-207697356,,
257185904,3.39528,624862376,4314569,423415916,-201446460,,
257236435,3.44581,624912909,4365099,429739202,-195173707,,
257286952,3.49633,624963427,4415614,436057733,-188905694,,
257337830,3.54721,625014305,4466490,442422680,-182591625,,
257388318,3.59770,625064795,4516977,448739084,-176325711,,
257438892,3.64827,625115371,4567550,455066248,-170049123,,
257489863,3.69924,625166343,4618519,461442956,-163723387,,
257540447,3.74983,625216940,4669113,467772872,-157444068,,
257590593,3.79997,625267076,4719245,474044862,-151222214,,
257640874,3.85025,625317357,4769534,480336370,-144980987,,
257691343,3.90072,625367829,4819993,486649271,-138718558,,
257741469,3.95085,625417967,4870127,492921637,-132496330,,
257791993,4.00137,625468493,4920650,499242546,-126225947,,
257842370,4.05175,625518860,4971014,505543436,-119975424,,
257892979,4.10236,625569469,5021621,511874979,-113694490,,
257943408,4.15279,625619900,5072059,518185128,-107434772,,
257993506,4.20289,625670000,5122145,524451364,-101218636,,
258044279,4.25366,625720773,5172916,530803299,-94917474,,
258095099,4.30448,625771595,5223745,537162491,-88609104,,
258145692,4.35507,625822189,5274335,543491907,-82330282,,
258195863,4.40524,625872362,5324495,549767400,-76104962,,
258247019,4.45640,625923518,5375649,556167128,-69756390,,
258297358,4.50674,625973860,5425986,562464891,-63508969,,
258347524,4.55690,626024028,5476153,568741260,-57282768,,
258397985,4.60736,626074489,5526610,575053911,-51020578,,
258448281,4.65766,626124786,5576904,581346045,-44778741,,
258498450,4.70783,626174957,5627071,587622539,-38552418,,
258548627,4.75801,626225135,5677247,593900034,-32325101,,
258599394,4.80877,626275904,5728013,600251219,-26024685,,
258649556,4.85893,626326066,5778172,606526713,-19799353,,
258699729,4.90911,626376251,5828354,612804959,-13571292,,
258749887,4.95927,626426410,5878510,619079952,-7346458,,
258800029,5.00941,626476544,5928640,625352944,-1123600,,
258850453,5.05983,626526969,5979063,626526672,-297,,
258900607,5.10999,626577125,6029225,626576834,-291,,
258951251,5.16063,626627780,6079867,626627476,-304,,
259001571,5.21095,626678090,6130176,626677784,-306,,
259052186,5.26157,626728708,6180800,626728408,-300,,
259102844,5.31222,626779366,6231455,626779063,-303,,
259153521,5.36290,626830056,6282132,626829741,-315,,
259204153,5.41353,626880679,6332752,626880360,-319,,
259254791,5.46417,626931318,6383387,626930996,-322,,
259305606,5.51499,626982134,6434200,626981808,-326,,
259355737,5.56512,627032266,6484330,627031938,-328,,
259405865,5.61524,627082395,6534456,627082064,-331,,
259456403,5.66578,627132936,6584992,627132601,-335,,
259506496,5.71587,627183029,6635084,627182692,-337,,
259556597,5.76598,627233132,6685183,627232792,-340,,
259606711,5.81609,627283246,6735306,627282915,-331,,
259656895,5.86627,627333432,6785478,627333086,-346,,
259707139,5.91652,627383678,6835721,627383329,-349,,
259757248,5.96663,627433788,6885827,627433436,-352,,
259807823,6.01720,627484365,6936401,627484010,-355,,
259858053,6.06743,627534596,6986629,627534238,-358,,
259908600,6.11798,627585144,7037175,627584783,-361,,
259959204,6.16858,627635750,7087788,627635397,-353,,
260009639,6.21902,627686185,7138210,627685818,-367,,
260060160,6.26954,627736708,7188729,627736337,-371,,
260110278,6.31966,627786828,7238846,627786454,-374,,
260160402,6.36978,627836963,7288979,627836587,-376,,
260210897,6.42028,627887450,7339462,627887070,-380,,
260261431,6.47081,627937985,7389993,627937602,-383,,
260311623,6.52100,627988178,7440184,627987793,-385,,
260361878,6.57126,628038435,7490449,628038057,-378,,
260412517,6.62190,628089086,7541086,628088695,-391,,
260463140,6.67252,628139699,7591697,628139305,-394,,
260513685,6.72306,628190246,7642240,628189848,-398,,
260564013,6.77339,628240575,7692565,628240174,-401,,
260614145,6.82352,628290707,7742696,628290315,-392,,
260664584,6.87396,628341149,7793133,628340742,-407,,
260714909,6.92429,628391474,7843456,628391064,-410,,
260765484,6.97486,628442051,7894031,628441639,-412,,
260815997,7.02538,628492566,7944551,628492159,-407,,
260866102,7.07548,628542682,7994654,628542263,-419,,
260916950,7.12633,628593520,8045491,628593099,-421,,
260967465,7.17684,628644038,8096005,628643613,-425,,
261018205,7.22758,628694779,8146742,628694351,-428,,
261068769,7.27815,628745344,8197304,628744913,-431,,
261119645,7.32902,628796222,8248180,628795788,-434,,
261169841,7.37922,628846418,8298373,628845981,-437,,
261220351,7.42973,628896929,8348881,628896489,-440,,
261270924,7.48030,628947505,8399453,628947061,-444,,
261321725,7.53110,628998316,8450262,628997870,-446,,
261372287,7.58167,629048870,8500813,629048421,-449,,
261422880,7.63226,629099465,8551404,629099012,-453,,
261473508,7.68289,629150093,8602030,629149638,-455,,
261523909,7.73329,629200496,8652429,629200037,-459,,
261574032,7.78341,629250621,8702550,629250159,-462,,
261624960,7.83434,629301550,8753478,629301086,-464,,
261675464,7.88484,629352054,8803979,629351587,-467,,
261725676,7.93506,629402268,8854189,629401797,-471,,
261775788,7.98517,629452382,8904300,629451908,-474,,
261825923,8.03530,629502518,8954433,629502041,-477,,
261876033,8.08541,629552630,9004542,629552150,-480,,
261926150,8.13553,629602748,9054658,629602267,-481,,
261976289,8.18567,629652887,9104794,629652402,-485,,
262026910,8.23629,629703511,9155414,629703022,-489,,
262077031,8.28641,629753633,9205534,629753142,-491,,
262127157,8.33654,629803770,9255668,629803277,-493,,
262177774,8.38715,629854379,9306273,629853881,-498,,
262227881,8.43726,629904487,9356378,629903986,-501,,
262278235,8.48761,629954842,9406731,629954339,-503,,
262328728,8.53811,630005337,9457221,630004840,-497,,
262378859,8.58824,630055469,9507350,630054959,-510,,
262428943,8.63832,630105554,9557433,630105041,-513,,
262479348,8.68873,630155960,9607836,630155444,-516,,
262529451,8.73883,630206064,9657937,630205545,-519,,
262579575,8.78895,630256190,9708060,630255669,-521,,
262629704,8.83908,630306321,9758187,630305795,-526,,
262680300,8.88968,630356917,9808781,630356389,-528,,
262730404,8.93978,630407022,9858884,630406492,-530,,
262780526,8.98991,630457147,9909014,630456622,-525,,
262830663,9.04004,630507285,9959139,630506748,-537,,
262881132,9.09051,630557755,10009607,630557216,-539,,
262931251,9.14063,630607875,10059724,630607332,-543,,
262981391,9.19077,630658016,10109872,630657481,-535,,
263031661,9.24104,630708287,10160131,630707739,-548,,
263082018,9.29140,630758647,10210486,630758095,-552,,
263132138,9.34152,630808779,10260615,630808224,-555,,
263182958,9.39234,630859589,10311424,630859032,-557,,
263233198,9.44258,630909830,10361661,630909269,-561,,
263283769,9.49315,630960403,10412231,630959839,-564,,
263333934,9.54331,631010569,10462393,631010002,-567,,
263384096,9.59347,631060733,10512554,631060162,-571,,
263434200,9.64358,631110838,10562656,631110265,-573,,
263484718,9.69410,631161366,10613182,631160791,-575,,
263534877,9.74426,631211518,10663331,631210939,-579,,
263585427,9.79481,631262079,10713888,631261497,-582,,
263635555,9.84493,631312198,10764004,631311613,-585,,
263685676,9.89505,631362321,10814125,631361733,-588,,
263735788,9.94517,631412444,10864244,631411853,-591,,
263785957,9.99534,631462604,10914401,631462009,-595,,
263836097,10.04548,631512746,10964551,631512159,-587,,
263886685,10.09606,631563345,11015136,631562744,-601,,
263936916,10.14630,631613566,11065355,631612963,-603,,
263987326,10.19670,631663979,11115764,631663372,-607,,
264037642,10.24702,631714295,11166078,631713686,-609,,
264088311,10.29769,631764966,11216745,631764354,-612,,
264138479,10.34786,631815146,11266922,631814531,-615,,
264188838,10.39822,631865496,11317270,631864878,-618,,
264239522,10.44890,631916181,11367952,631915560,-621,,
264289907,10.49929,631966567,11418334,631965942,-625,,
264340028,10.54941,632016690,11468455,632016063,-627,,
264390265,10.59964,632066928,11518690,632066298,-630,,
264440365,10.64974,632117030,11568787,632116396,-634,,
264490664,10.70004,632167329,11619085,632166693,-636,,
264541038,10.75042,632217716,11669469,632217077,-639,,
264591810,10.80119,632268478,11720227,632267835,-643,,
264642034,10.85141,632318714,11770461,632318070,-644,,
264692474,10.90185,632369156,11820899,632368508,-648,,
264742909,10.95229,632419582,11871322,632418930,-652,,
264793362,11.00274,632470035,11921773,632469381,-654,,
264844020,11.05340,632520695,11972430,632520038,-657,,
264894479,11.10386,632571155,12022886,632570494,-661,,
264944994,11.15437,632621683,12073411,632621019,-664,,
264995511,11.20489,632672190,12123916,632671525,-665,,
265045907,11.25529,632722588,12174309,632721918,-670,,
265096801,11.30618,632773483,12225202,632772810,-673,,
265147332,11.35671,632824015,12275731,632823340,-675,,
265197598,11.40698,632874283,12325995,632873604,-679,,
265247952,11.45733,632924638,12376347,632923956,-682,,
265298803,11.50818,632975490,12427198,632974807,-683,,
265349376,11.55875,633026065,12477769,633025377,-688,,
265399997,11.60938,633076686,12528387,633075995,-691,,
265450128,11.65951,633126819,12578518,633126127,-692,,
265500420,11.70980,633177113,12628817,633176426,-687,,
265551499,11.76088,633228192,12679884,633227492,-700,,
265602239,11.81162,633278934,12730623,633278232,-702,,
265652390,11.86177,633329087,12780772,633328381,-706,,
265703131,11.91251,633379829,12831511,633379120,-709,,
265753680,11.96306,633430378,12882058,633429666,-712,,
265804223,12.01360,633480934,12932610,633480219,-715,,
265854811,12.06419,633531513,12983187,633530795,-718,,
265905793,12.11517,633582495,13034166,633581775,-720,,
265956595,12.16597,633633300,13084967,633632576,-724,,
266007410,12.21679,633684115,13135780,633683389,-726,,
266058368,12.26775,633735074,13186736,633734344,-730,,
266108919,12.31830,633785628,13237286,633784895,-733,,
266159337,12.36872,633836047,13287703,633835311,-736,,
266210193,12.41957,633886903,13338556,633886164,-739,,
266260768,12.47015,633937481,13389130,633936738,-743,,
266311198,12.52058,633987921,13439568,633987177,-744,,
266361622,12.57100,634038337,13489981,634037589,-748,,
266412595,12.62197,634089312,13540951,634088560,-752,,
266463206,12.67258,634139924,13591561,634139170,-754,,
266513755,12.72313,634190475,13642109,634189717,-758,,
266563801,12.77318,634240522,13692153,634239761,-761,,
266613906,12.82329,634290628,13742256,634289865,-763,,
266664477,12.87386,634341200,13792825,634340433,-767,,
266714544,12.92392,634391269,13842891,634390499,-770,,
266765523,12.97490,634442249,13893868,634441476,-773,,
266816511,13.02589,634493239,13944855,634492463,-776,,
266867381,13.07676,634544110,13995722,634543331,-779,,
266917759,13.12714,634594488,14046098,634593706,-782,,
266967832,13.17721,634644564,14096171,634643779,-785,,
267017993,13.22737,634694725,14146329,634693937,-788,,
267068430,13.27781,634745163,14196764,634744372,-791,,
267118566,13.32794,634795312,14246909,634794518,-794,,
267168650,13.37803,634845397,14296992,634844600,-797,,
267218946,13.42832,634895684,14347275,634894883,-801,,
267269324,13.47870,634946064,14397652,634945261,-803,,
267319681,13.52906,634996422,14448007,634995616,-806,,
267370048,13.57943,635046800,14498383,635045991,-809,,
267420209,13.62959,635096952,14548532,635096140,-812,,
267470796,13.68018,635147541,14599117,635146736,-805,,
267521322,13.73070,635198067,14649641,635197249,-818,,
267571934,13.78131,635248682,14700263,635247871,-811,,
267622480,13.83186,635299239,14750807,635298415,-824,,
267672681,13.88206,635349431,14800995,635348604,-827,,
267723093,13.93247,635399844,14851416,635399024,-820,,
267773357,13.98274,635450110,14901669,635449277,-833,,
267823944,14.03332,635500709,14952264,635499873,-836,,
267874102,14.08348,635550858,15002409,635550017,-841,,
267924241,14.13362,635601008,15052558,635600166,-842,,
267974749,14.18413,635651507,15103063,635650672,-835,,
268025259,14.23464,635702019,15153562,635701170,-849,,
268075530,14.28491,635752291,15203831,635751440,-851,,
268126263,14.33564,635803025,15254563,635802171,-854,,
268176849,14.38623,635853612,15305146,635852754,-858,,
268227497,14.43688,635904262,15355793,635903401,-861,,
268278603,14.48798,635955369,15406898,635954506,-863,,
268329150,14.53853,636005929,15457454,636005063,-866,,
268379840,14.58922,636056609,15508130,636055739,-870,,
268430232,14.63961,636107001,15558521,636106129,-872,,
268480900,14.69028,636157672,15609187,636156796,-876,,
268531358,14.74074,636208131,15659643,636207252,-879,,
268581586,14.79096,636258360,15709870,636257478,-882,,
268632718,14.84210,636309494,15761000,636308609,-885,,
268682820,14.89220,636359597,15811100,636358708,-889,,
268732939,14.94232,636409717,15861218,636408826,-891,,
268783093,14.99247,636459873,15911370,636458978,-895,,
268833386,15.04276,636510167,15961661,636509270,-897,,
268883802,15.09318,636560584,16012076,636559685,-899,,
268934448,15.14383,636611232,16062720,636610329,-903,,
268984844,15.19422,636661629,16113114,636660723,-906,,
269035206,15.24459,636711991,16163475,636711083,-908,,
269085940,15.29532,636762728,16214208,636761816,-912,,
269136459,15.34584,636813248,16264725,636812333,-915,,
269186773,15.39615,636863563,16315036,636862644,-919,,
269236902,15.44628,636913694,16365175,636912784,-910,,
269287183,15.49656,636963986,16415453,636963062,-924,,
269337818,15.54720,637014612,16466077,637013685,-927,,
269387965,15.59734,637064772,16516234,637063842,-930,,
269438992,15.64837,637115789,16567247,637114855,-934,,
269489244,15.69862,637166053,16617508,637165117,-936,,
269539777,15.74916,637216577,16668030,637215638,-939,,
269589888,15.79927,637266689,16718138,637265747,-942,,
269640644,15.85002,637317446,16768892,637316501,-945,,
269691001,15.90038,637367805,16819248,637366856,-949,,
269741116,15.95050,637417921,16869361,637416970,-951,,
269791696,16.00108,637468513,16919951,637467559,-954,,
269841852,16.05123,637518660,16970094,637517702,-958,,
269892455,16.10183,637569264,17020695,637568303,-961,,
269942595,16.15197,637619405,17070833,637618442,-963,,
269993144,16.20252,637669956,17121380,637668989,-967,,
270043692,16.25307,637720504,17171927,637719535,-969,,
270094236,16.30362,637771050,17222469,637770078,-972,,
270145285,16.35466,637822101,17273516,637821125,-976,,
270195724,16.40510,637872541,17323955,637871563,-978,,
270245779,16.45516,637922597,17374008,637921616,-981,,
270296241,16.50562,637973061,17424477,637972085,-976,,
270346541,16.55592,638023362,17474767,638022375,-987,,
270396698,16.60608,638073520,17524921,638072529,-991,,
270446834,16.65621,638123658,17575055,638122663,-995,,
270497586,16.70697,638174410,17625806,638173414,-996,,
270547850,16.75723,638224676,17676068,638223677,-999,,
270597954,16.80733,638274782,17726170,638273778,-1004,,
270648114,16.85749,638324954,17776340,638323948,-1006,,
270698725,16.90810,638375554,17826938,638374546,-1008,,
270749178,16.95856,638426020,17877400,638425008,-1012,,
270799260,17.00864,638476093,17927469,638475078,-1015,,
