Server clock before sync: 38
Synchronizing server_clock...
[1/51] [2/51] [3/51] [4/51] [5/51] [6/51] [7/51] [8/51] [9/51] [10/51] 
[11/51] [12/51] [13/51] [14/51] [15/51] [16/51] [17/51] [18/51] [19/51] [20/51] 
[21/51] [22/51] [23/51] [24/51] [25/51] [26/51] [27/51] [28/51] [29/51] [30/51] 
[31/51] [32/51] [33/51] [34/51] [35/51] [36/51] [37/51] [38/51] [39/51] [40/51] 
[41/51] [42/51] [43/51] [44/51] [45/51] [46/51] [47/51] [48/51] [49/51] [50/51] 
Best Server Sync RTT: 234624, Worst Server Sync RTT: 242860
Average RTT: 235095.700000
Est Server Time: 15933392990, Computed Server Time offset: 15921637805
Server clock after sync: 15933392991

====== SIMULATION METADATA     =====
Server IP: 128.83.139.94, Port: 8040
Server Drift: 40.00 PPM, Client VHC Drift: -40.00 PPM
Relative Drift Weight: -3.50
Local Server Time Error: 117312
Rapport Period: 30000000
Amortization Period: 5000000
Simulation runtime: 1800 seconds
Simulation runtime: 1800000000 usec, 
 Start: 14525314273, End: 16325314273
====== SIMULATION OUTPUT START =====
Current Real Time,Real Time Elapsed (sec),Local Server Time,Hardware Clock Time,Software Clock Time,Error,Remote Est Time,
14525314416,0.00014,15933393135,11754390,11754390,-15921638745,,
14525549121,0.23485,15933627849,11989084,11989084,-15921638765,15933627905,
14525574669,0.26040,15933653398,12014631,93371022,-15840282376,,
14525625274,0.31100,15933704004,12065235,254558163,-15679145841,,
14525676330,0.36206,15933755062,12116288,417181886,-15516573176,,
14525726509,0.41224,15933805243,12166466,577012077,-15356793166,,
14525777044,0.46277,15933855780,12216999,737976245,-15195879535,,
14525827623,0.51335,15933906360,12267574,899077382,-15034828978,,
14525877753,0.56348,15933956493,12317702,1058751493,-14875205000,,
14525930019,0.61575,15934008760,12369966,1225226277,-14708782483,,
14525980822,0.66655,15934059564,12420766,1387044113,-14547015451,,
14526030904,0.71663,15934109649,12470847,1546565328,-14387544321,,
14526081021,0.76675,15934159767,12520961,1706194843,-14227964924,,
14526131658,0.81739,15934210407,12571596,1867487100,-14066723307,,
14526182266,0.86799,15934261017,12622202,2028683797,-13905577220,,
14526233292,0.91902,15934312056,12673237,2191246999,-13743065057,,
14526284337,0.97006,15934363091,12724269,2353797460,-13580565631,,
14526335386,1.02111,15934414142,12775316,2516398887,-13418015255,,
14526386456,1.07218,15934465213,12826383,2679064020,-13255401193,,
14526436976,1.12270,15934515735,12876901,2839980408,-13094535327,,
14526488011,1.17374,15934566772,12927934,3002537240,-12932029532,,
14526539063,1.22479,15934617826,12978983,3165145037,-12769472789,,
14526590112,1.27584,15934668877,13030030,3327746463,-12606922414,,
14526641156,1.32688,15934719923,13081072,3490335148,-12444384775,,
14526692230,1.37796,15934770999,13132145,3653016208,-12281754791,,
14526743289,1.42902,15934822060,13183201,3815649487,-12119172573,,
14526793827,1.47955,15934872600,13233737,3976620026,-11958252574,,
14526844559,1.53029,15934923334,13284467,4138214889,-11796708445,,
14526895133,1.58086,15934973909,13335038,4299296914,-11635676995,,
14526945523,1.63125,15935024302,13385426,4459799209,-11475225093,,
14526995822,1.68155,15935074602,13435723,4620011640,-11315062962,,
14527046311,1.73204,15935125093,13486210,4780829283,-11154295810,,
14527096595,1.78232,15935175379,13536491,4940993933,-10994181446,,
14527146999,1.83273,15935225796,13586904,5101575862,-10833649934,,
14527197577,1.88330,15935276364,13637469,5262638775,-10672637589,,
14527248426,1.93415,15935327216,13688316,5424606321,-10510720895,,
14527299046,1.98477,15935377837,13738934,5585838056,-10349539781,,
14527350086,2.03581,15935428879,13789971,5748407630,-10187021249,,
14527400226,2.08595,15935479021,13840109,5908116778,-10027362243,,
14527451278,2.13700,15935530075,13891159,6070727761,-9864802314,,
14527502324,2.18805,15935581123,13942203,6233316446,-9702264677,,
14527553374,2.23910,15935632175,13993251,6395921058,-9539711117,,
14527604400,2.29013,15935683214,14044286,6558484260,-9377198954,,
14527655449,2.34118,15935734264,14095332,6721085686,-9214648578,,
14527706522,2.39225,15935785327,14146392,6883725337,-9052059990,,
14527757540,2.44327,15935836347,14197406,7046224833,-8889611514,,
14527808581,2.49431,15935887390,14248446,7208803962,-8727083428,,
14527859130,2.54486,15935937942,14298993,7369812724,-8566125218,,
14527909664,2.59539,15935988478,14349526,7530773707,-8405214771,,
14527960291,2.64602,15936039107,14400151,7692030925,-8244008182,,
14528011404,2.69713,15936090220,14451260,7854829842,-8081260378,,
14528061960,2.74769,15936140779,14501815,8015864087,-7920276692,,
14528112582,2.79831,15936191403,14552434,8177105378,-7759086025,,
14528163238,2.84897,15936242061,14603089,8338454971,-7597787090,,
14528214120,2.89985,15936292944,14653968,8500521262,-7435771682,,
14528265187,2.95091,15936344014,14705033,8663180024,-7273163990,,
14528316129,3.00186,15936394958,14755972,8825440621,-7110954337,,
14528366571,3.05230,15936445400,14806412,8986105368,-6950340032,,
14528417183,3.10291,15936496015,14857022,9147317991,-6789178024,,
14528467360,3.15309,15936546194,14907197,9307141812,-6629404382,,
14528517926,3.20365,15936596762,14957760,9468198354,-6468398408,,
14528568507,3.25423,15936647345,15008339,9629312233,-6307335112,,
14528619142,3.30487,15936697982,15058973,9790594933,-6146103049,,
14528669721,3.35545,15936748563,15109549,9951696070,-5985052493,,
14528720277,3.40600,15936799120,15160103,10112727130,-5824071990,,
14528771024,3.45675,15936849868,15210847,10274363402,-5662486466,,
14528821919,3.50765,15936900766,15261740,10436477473,-5500423293,,
14528872790,3.55852,15936951638,15312609,10598511911,-5338439727,,
14528923871,3.60960,15937002722,15363688,10761215268,-5175787454,,
14528974857,3.66058,15937053710,15414671,10923612834,-5013440876,,
14529024955,3.71068,15937103809,15464768,11083188199,-4853915610,,
14529076006,3.76173,15937154861,15515816,11245789625,-4691365236,,
14529126548,3.81228,15937205405,15566366,11406811129,-4530394276,,
14529177102,3.86283,15937255962,15616908,11567803965,-4369451997,,
14529228183,3.91391,15937307045,15667986,11730504136,-4206802909,,
14529279174,3.96490,15937358037,15718975,11892917628,-4044440409,,
14529329290,4.01502,15937408156,15769090,12052550329,-3884857827,,
14529380282,4.06601,15937459149,15820079,12214970192,-3722488957,,
14529430873,4.11660,15937509742,15870668,12376112738,-3561397004,,
14529481925,4.16765,15937560795,15921717,12538717350,-3398843445,,
14529532762,4.21849,15937611635,15972552,12700643487,-3236968148,,
14529583310,4.26904,15937662185,16023098,12861649064,-3076013121,,
14529633889,4.31962,15937712766,16073675,13022756572,-2914956194,,
14529684932,4.37066,15937763811,16124716,13185338886,-2752424925,,
14529736014,4.42174,15937814894,16175795,13348042243,-2589772651,,
14529786817,4.47254,15937865698,16226596,13509856894,-2428008804,,
14529837430,4.52316,15937916314,16277207,13671072702,-2266843612,,
14529887976,4.57370,15937966862,16327751,13832071909,-2105894953,,
14529938865,4.62459,15938017753,16378637,13994160497,-1943857256,,
14529989926,4.67565,15938068816,16429696,14156800148,-1781268668,,
14530041009,4.72674,15938119901,16480778,14319509875,-1618610026,,
14530091561,4.77729,15938170454,16531328,14480528194,-1457642260,,
14530141887,4.82761,15938220793,16581663,14640861667,-1297359126,,
14530192488,4.87821,15938271384,16632249,14801997842,-1136273542,,
14530243070,4.92880,15938321969,16682829,14963111721,-975210248,,
14530293694,4.97942,15938372594,16733451,15124356198,-814016396,,
14530344276,5.03000,15938423179,16784031,15285473261,-652949918,,
14530395329,5.08106,15938474234,16835083,15448090614,-490383620,,
14530445936,5.13166,15938524842,16885686,15609274570,-329250272,,
14530496521,5.18225,15938575429,16936270,15770401189,-168174240,,
14530547151,5.23288,15938626060,16986897,15931664778,-6961282,,
14530597711,5.28344,15938676623,17037456,15938676278,-345,,
14530648788,5.33451,15938727702,17088531,15938727353,-349,,
14530699301,5.38503,15938778216,17139040,15938777862,-354,,
14530749884,5.43561,15938828801,17189621,15938828444,-357,,
14530800083,5.48581,15938879002,17239818,15938878641,-361,,
14530850706,5.53643,15938929627,17290439,15938929262,-365,,
14530901748,5.58748,15938980671,17341480,15938980302,-369,,
14530952840,5.63857,15939031765,17392568,15939031391,-374,,
14531003397,5.68912,15939082324,17443123,15939081946,-378,,
14531053947,5.73967,15939132876,17493671,15939132494,-382,,
14531104812,5.79054,15939183742,17544535,15939183357,-385,,
14531155878,5.84161,15939234810,17595598,15939234421,-389,,
14531206443,5.89217,15939285376,17646160,15939284983,-393,,
14531257424,5.94315,15939336360,17697140,15939335962,-398,,
14531308512,5.99424,15939387450,17748226,15939387048,-402,,
14531359120,6.04485,15939438059,17798831,15939437653,-406,,
14531409667,6.09539,15939488609,17849376,15939488199,-410,,
14531460747,6.14647,15939539689,17900452,15939539275,-414,,
14531511800,6.19753,15939590744,17951504,15939590327,-417,,
14531562804,6.24853,15939641751,18002506,15939641329,-422,,
14531613394,6.29912,15939692343,18053095,15939691917,-426,,
14531663977,6.34970,15939742928,18103674,15939742496,-432,,
14531715026,6.40075,15939793979,18154721,15939793543,-436,,
14531766075,6.45180,15939845029,18205768,15939844591,-438,,
14531817121,6.50285,15939896077,18256812,15939895635,-442,,
14531867704,6.55343,15939946662,18307393,15939946215,-447,,
14531918796,6.60452,15939997756,18358482,15939997305,-451,,
14531969401,6.65513,15940048363,18409086,15940047908,-455,,
14532019990,6.70572,15940098954,18459672,15940098495,-459,,
14532070584,6.75631,15940149550,18510265,15940149087,-463,,
14532121625,6.80735,15940200604,18561315,15940200138,-466,,
14532172738,6.85846,15940251707,18612413,15940251236,-471,,
14532223738,6.90946,15940302709,18663411,15940302234,-475,,
14532274334,6.96006,15940353306,18714005,15940352827,-479,,
14532325382,7.01111,15940404357,18765051,15940403874,-483,,
14532376448,7.06217,15940455425,18816114,15940454937,-488,,
14532427469,7.11320,15940506448,18867133,15940505956,-492,,
14532478502,7.16423,15940557483,18918164,15940556987,-496,,
14532529547,7.21527,15940608529,18969207,15940608030,-499,,
14532580080,7.26581,15940659064,19019738,15940658561,-503,,
14532631176,7.31690,15940710162,19070832,15940709654,-508,,
14532682054,7.36778,15940761041,19121707,15940760530,-511,,
14532732554,7.41828,15940811543,19172205,15940811027,-516,,
14532782661,7.46839,15940861653,19222310,15940861133,-520,,
14532833704,7.51943,15940912698,19273352,15940912174,-524,,
14532884340,7.57007,15940963335,19323984,15940962807,-528,,
14532934956,7.62068,15941013953,19374599,15941013421,-532,,
14532985108,7.67084,15941064106,19424748,15941063570,-536,,
14533035638,7.72136,15941114639,19475276,15941114099,-540,,
14533086349,7.77208,15941165351,19525985,15941164808,-543,,
14533136714,7.82244,15941215718,19576347,15941215169,-549,,
14533186957,7.87268,15941265963,19626589,15941265411,-552,,
14533237535,7.92326,15941316543,19677165,15941315987,-556,,
14533288583,7.97431,15941367593,19728211,15941367033,-560,,
14533339616,8.02534,15941418628,19779242,15941418076,-552,,
14533390649,8.07638,15941469662,19830271,15941469093,-569,,
14533441731,8.12746,15941520747,19881351,15941520174,-573,,
14533492780,8.17851,15941571798,19932398,15941571220,-578,,
14533543832,8.22956,15941622851,19983448,15941622270,-581,,
14533594881,8.28061,15941673901,20034494,15941673316,-585,,
14533645927,8.33165,15941724949,20085538,15941724360,-589,,
14533696983,8.38271,15941776007,20136603,15941775426,-581,,
14533747633,8.43336,15941826660,20187241,15941826063,-597,,
14533798685,8.48441,15941877714,20238290,15941877113,-601,,
14533848808,8.53453,15941927839,20288410,15941927244,-595,,
14533898954,8.58468,15941977985,20338554,15941977376,-609,,
14533949116,8.63484,15942028150,20388714,15942027536,-614,,
14534000153,8.68588,15942079189,20439749,15942078572,-617,,
14534050759,8.73649,15942129797,20490354,15942129176,-621,,
14534101784,8.78751,15942180824,20541376,15942180198,-626,,
14534152531,8.83826,15942231572,20592120,15942230942,-630,,
14534202819,8.88855,15942281862,20642406,15942281229,-633,,
14534253839,8.93957,15942332883,20693424,15942332246,-637,,
14534304876,8.99060,15942383922,20744459,15942383281,-641,,
14534355196,9.04092,15942434245,20794776,15942433610,-635,,
14534405999,9.09173,15942485049,20845577,15942484399,-650,,
14534456647,9.14237,15942535699,20896223,15942535045,-654,,
14534507232,9.19296,15942586298,20946818,15942585641,-657,,
14534557642,9.24337,15942636698,20997214,15942636037,-661,,
14534608403,9.29413,15942687461,21047973,15942686795,-666,,
14534659151,9.34488,15942738211,21098718,15942737541,-670,,
14534709700,9.39543,15942788761,21149265,15942788087,-674,,
14534760307,9.44603,15942839371,21199871,15942838693,-678,,
14534810836,9.49656,15942889902,21250397,15942889220,-682,,
14534861458,9.54719,15942940526,21301016,15942939839,-687,,
14534912509,9.59824,15942991578,21352065,15942990888,-690,,
14534963557,9.64928,15943042628,21403111,15943041934,-694,,
14535014329,9.70006,15943093401,21453881,15943092703,-698,,
14535064965,9.75069,15943144040,21504515,15943143338,-702,,
14535115536,9.80126,15943194613,21555095,15943193917,-696,,
14535165987,9.85171,15943245075,21605542,15943244365,-710,,
14535216500,9.90223,15943295580,21656043,15943294866,-714,,
14535267547,9.95327,15943346629,21707089,15943345911,-718,,
14535318596,10.00432,15943397679,21758134,15943396956,-723,,
14535369653,10.05538,15943448739,21809189,15943448012,-727,,
14535420702,10.10643,15943499790,21860236,15943499058,-732,,
14535471750,10.15748,15943550840,21911283,15943550105,-735,,
14535522800,10.20853,15943601891,21962330,15943601152,-739,,
14535573831,10.25956,15943652924,22013369,15943652191,-733,,
14535624842,10.31057,15943703937,22064368,15943703190,-747,,
14535680524,10.36625,15943759620,22120047,15943758870,-750,,
14535731293,10.41702,15943810391,22170814,15943809636,-755,,
14535781784,10.46751,15943860885,22221302,15943860125,-760,,
14535832120,10.51785,15943911223,22271637,15943910459,-764,,
14535883205,10.56893,15943962309,22322718,15943961541,-768,,
14535933771,10.61950,15944012878,22373283,15944012106,-772,,
14535984628,10.67036,15944063737,22424139,15944062961,-776,,
14536035682,10.72141,15944114792,22475189,15944114011,-781,,
14536086247,10.77197,15944165359,22525752,15944164575,-784,,
14536136803,10.82253,15944215917,22576306,15944215129,-788,,
14536189413,10.87514,15944268529,22628914,15944267737,-792,,
14536240233,10.92596,15944319351,22679731,15944318553,-798,,
14536291174,10.97690,15944370294,22730670,15944369493,-801,,
14536341742,11.02747,15944420863,22781236,15944420059,-804,,
14536392310,11.07804,15944471432,22831802,15944470624,-808,,
14536442951,11.12868,15944522075,22882441,15944521263,-812,,
14536494017,11.17974,15944573144,22933505,15944572328,-816,,
14536544773,11.23050,15944623902,22984258,15944623081,-821,,
14536594913,11.28064,15944674043,23034396,15944673219,-824,,
14536645461,11.33119,15944724593,23084942,15944723764,-829,,
14536696229,11.38196,15944775363,23135708,15944774531,-832,,
14536746710,11.43244,15944825845,23186185,15944825008,-837,,
14536802465,11.48819,15944881602,23241939,15944880761,-841,,
14536852592,11.53832,15944931731,23292064,15944930886,-845,,
14536902879,11.58861,15944982020,23342349,15944981171,-849,,
14536953530,11.63926,15945032674,23392998,15945031820,-854,,
14537004082,11.68981,15945083238,23443558,15945082380,-858,,
14537054629,11.74036,15945133777,23494092,15945132915,-862,,
14537104948,11.79068,15945184096,23544409,15945183231,-865,,
14537155297,11.84102,15945234448,23594757,15945233579,-869,,
14537205898,11.89162,15945285050,23645354,15945284176,-874,,
14537256161,11.94189,15945335316,23695615,15945334437,-879,,
14537306421,11.99215,15945385577,23745873,15945384696,-881,,
14537357054,12.04278,15945436212,23796504,15945435326,-886,,
14537407378,12.09310,15945486549,23846838,15945485660,-889,,
14537457660,12.14339,15945536821,23897105,15945535928,-893,,
14537508320,12.19405,15945587484,23947764,15945586586,-898,,
14537559312,12.24504,15945638477,23998753,15945637576,-901,,
14537609627,12.29535,15945688795,24049067,15945687889,-906,,
14537660003,12.34573,15945739173,24099440,15945738263,-910,,
14537710684,12.39641,15945789855,24150118,15945788940,-915,,
14537761327,12.44705,15945840500,24200760,15945839582,-918,,
14537812122,12.49785,15945891297,24251552,15945890375,-922,,
14537862731,12.54846,15945941908,24302159,15945940981,-927,,
14537913227,12.59895,15945992405,24352653,15945991475,-930,,
14537963805,12.64953,15946042985,24403228,15946042050,-935,,
14538014346,12.70007,15946093528,24453767,15946092589,-939,,
14538064673,12.75040,15946143857,24504093,15946142915,-942,,
14538115492,12.80122,15946194678,24554910,15946193732,-946,,
14538166210,12.85194,15946245398,24605626,15946244448,-950,,
14538217220,12.90295,15946296410,24656632,15946295455,-955,,
14538267793,12.95352,15946346985,24707203,15946346025,-960,,
14538318084,13.00381,15946397277,24757491,15946396314,-963,,
14538368742,13.05447,15946447937,24808148,15946446970,-967,,
14538419077,13.10480,15946498273,24858481,15946497303,-970,,
14538469900,13.15563,15946549098,24909301,15946548123,-975,,
14538520127,13.20585,15946599327,24959526,15946598348,-979,,
14538570467,13.25619,15946649669,25009864,15946648686,-983,,
14538620943,13.30667,15946700147,25060338,15946699160,-987,,
14538671523,13.35725,15946750730,25110916,15946749739,-991,,
14538721785,13.40751,15946800992,25161175,15946799997,-995,,
14538771964,13.45769,15946851174,25211352,15946850175,-999,,
14538822362,13.50809,15946901574,25261749,15946900571,-1003,,
14538873087,13.55881,15946952301,25312472,15946951295,-1006,,
14538923545,13.60927,15947002760,25362927,15947001749,-1011,,
14538974225,13.65995,15947053442,25413604,15947052426,-1016,,
14539024621,13.71035,15947103840,25463998,15947102821,-1019,,
14539075189,13.76092,15947154410,25514564,15947153387,-1023,,
14539125562,13.81129,15947204785,25564936,15947203759,-1026,,
14539176316,13.86204,15947255541,25615687,15947254510,-1031,,
14539227063,13.91279,15947306290,25666432,15947305254,-1036,,
14539277312,13.96304,15947356541,25716678,15947355501,-1040,,
14539328030,14.01376,15947407261,25767395,15947406217,-1044,,
14539378591,14.06432,15947457823,25817954,15947456776,-1047,,
14539429030,14.11476,15947508263,25868390,15947507212,-1051,,
14539479732,14.16546,15947558968,25919090,15947557912,-1056,,
14539529900,14.21563,15947609137,25969255,15947608077,-1060,,
14539580600,14.26633,15947659840,26019954,15947658776,-1064,,
14539630947,14.31667,15947710188,26070298,15947709120,-1068,,
14539681527,14.36725,15947760770,26120877,15947759699,-1071,,
14539732098,14.41783,15947811342,26171444,15947810266,-1076,,
14539782383,14.46811,15947861629,26221727,15947860549,-1080,,
14539832993,14.51872,15947912242,26272336,15947911158,-1084,,
14539883455,14.56918,15947962705,26322795,15947961617,-1088,,
14539933850,14.61958,15948013103,26373188,15948012011,-1092,,
14539984549,14.67028,15948063804,26423885,15948062708,-1096,,
14540035124,14.72085,15948114380,26474457,15948113280,-1100,,
14540085449,14.77118,15948164706,26524780,15948163602,-1104,,
14540136050,14.82178,15948215309,26575379,15948214201,-1108,,
14540186781,14.87251,15948266043,26626108,15948264931,-1112,,
14540237708,14.92343,15948316972,26677032,15948315855,-1117,,
14540288036,14.97376,15948367301,26727358,15948366180,-1121,,
14540338352,15.02408,15948417619,26777673,15948416495,-1124,,
14540388627,15.07435,15948467896,26827946,15948466768,-1128,,
14540438918,15.12464,15948518189,26878234,15948517056,-1133,,
14540489511,15.17524,15948568784,26928825,15948567648,-1136,,
14540539642,15.22537,15948618917,26978953,15948617775,-1142,,
14540589924,15.27565,15948669201,27029234,15948668056,-1145,,
14540640282,15.32601,15948719560,27079589,15948718412,-1148,,
