Server clock before sync: 48
Synchronizing server_clock...
[1/51] [2/51] [3/51] [4/51] [5/51] [6/51] [7/51] [8/51] [9/51] [10/51] 
[11/51] [12/51] [13/51] [14/51] [15/51] [16/51] [17/51] [18/51] [19/51] [20/51] 
[21/51] [22/51] [23/51] [24/51] [25/51] [26/51] [27/51] [28/51] [29/51] [30/51] 
[31/51] [32/51] [33/51] [34/51] [35/51] [36/51] [37/51] [38/51] [39/51] [40/51] 
[41/51] [42/51] [43/51] [44/51] [45/51] [46/51] [47/51] [48/51] [49/51] [50/51] 
Best Server Sync RTT: 65969, Worst Server Sync RTT: 73573
Average RTT: 66700.380000
Est Server Time: 1621916750, Computed Server Time offset: 1618581302
Server clock after sync: 1621916751

====== SIMULATION METADATA     =====
Server IP: 128.83.139.94, Port: 8010
Server Drift: 10.00 PPM, Client VHC Drift: -10.00 PPM
Relative Drift Weight: -3.50
Local Server Time Error: 32984
Rapport Period: 10000000
Amortization Period: 5000000
Simulation runtime: 1800 seconds
Simulation runtime: 1800000000 usec, 
 Start: 190968933, End: 1990968933
====== SIMULATION OUTPUT START =====
Current Real Time,Real Time Elapsed (sec),Local Server Time,Hardware Clock Time,Software Clock Time,Error,Remote Est Time,
190969057,0.00012,1621916876,3335508,3335508,-1618581368,,
191048407,0.07947,1621996226,3414857,3414857,-1618581369,1621989576,
191073508,0.10458,1622021328,3439959,11566499,-1610454829,,
191124555,0.15562,1622072376,3491004,28141573,-1593930803,,
191175114,0.20618,1622122935,3541562,44558836,-1577564099,,
191225684,0.25675,1622173505,3592133,60979995,-1561193510,,
191276222,0.30729,1622224044,3642670,77389790,-1544834254,,
191326872,0.35794,1622274693,3693318,93835952,-1528438741,,
191377406,0.40847,1622325227,3743851,110244773,-1512080454,,
191427954,0.45902,1622375777,3794399,126658788,-1495716989,,
191478505,0.50957,1622426328,3844950,143073129,-1479353199,,
191529552,0.56062,1622477374,3895995,159648203,-1462829171,,
191580602,0.61167,1622528426,3947045,176225226,-1446303200,,
191631161,0.66223,1622578984,3997603,192641839,-1429937145,,
191681705,0.71277,1622629529,4048147,209054231,-1413575298,,
191732750,0.76382,1622680574,4099191,225628981,-1397051593,,
191783312,0.81438,1622731137,4149753,242047218,-1380683919,,
191834352,0.86542,1622782177,4200791,258620344,-1364161833,,
191884404,0.91547,1622832229,4250843,274872652,-1347959577,,
191935448,0.96652,1622883274,4301887,291447401,-1331435873,,
191985986,1.01705,1622933812,4352423,307857520,-1315076292,,
192036536,1.06760,1622984363,4402974,324271861,-1298712502,,
192087631,1.11870,1623035457,4454067,340862521,-1282172936,,
192138678,1.16975,1623086505,4505113,357438245,-1265648260,,
192188830,1.21990,1623136658,4555265,373723349,-1249413309,,
192238893,1.26996,1623186721,4605327,389979229,-1233207492,,
192289435,1.32050,1623237263,4655868,406390647,-1216846616,,
192339501,1.37057,1623287330,4705934,422647500,-1200639830,,
192390566,1.42163,1623338395,4756999,439229069,-1184109326,,
192441401,1.47247,1623389229,4807832,455735304,-1167653925,,
192491826,1.52289,1623439656,4858256,472109055,-1151330601,,
192542376,1.57344,1623490206,4908806,488523395,-1134966811,,
192592959,1.62403,1623540788,4959388,504948126,-1118592662,,
192643509,1.67458,1623591339,5009937,521361817,-1102229522,,
192694514,1.72558,1623642345,5060943,537924228,-1085718117,,
192745105,1.77617,1623692936,5111532,554351557,-1069341379,,
192796113,1.82718,1623743945,5162539,570914292,-1052829653,,
192846170,1.87724,1623794002,5212597,587168548,-1036625454,,
192897216,1.92828,1623845048,5263642,603743622,-1020101426,,
192948254,1.97932,1623896087,5314678,620316099,-1003579988,,
192998840,2.02991,1623946673,5365265,636742129,-987204544,,
193049893,2.08096,1623997726,5416316,653319152,-970678574,,
193100496,2.13156,1624048329,5466917,669750377,-954297952,,
193151467,2.18253,1624099301,5517890,686301747,-937797554,,
193202019,2.23309,1624149853,5568440,702716413,-921433440,,
193253039,2.28411,1624200874,5619459,719283044,-904917830,,
193303624,2.33469,1624251459,5670044,735708425,-888543034,,
193353958,2.38503,1624301793,5720377,752052627,-872249166,,
193404510,2.43558,1624352346,5770929,768467292,-855885054,,
193454684,2.48575,1624402520,5821101,784758890,-839643630,,
193505306,2.53637,1624453141,5871722,801196610,-823256531,,
193556354,2.58742,1624504190,5922770,817772659,-806731531,,
193606906,2.63797,1624554743,5973321,834186999,-790367744,,
193657953,2.68902,1624605789,6024368,850763048,-773842741,,
193709002,2.74007,1624656838,6075416,867339096,-757317742,,
193759549,2.79062,1624707387,6125962,883751813,-740955574,,
193810587,2.84165,1624758425,6177000,900324939,-724433486,,
193861632,2.89270,1624809469,6228044,916899364,-707910105,,
193912370,2.94344,1624860208,6278781,933374426,-691485782,,
193962747,2.99381,1624910586,6329159,949732916,-675177670,,
194013310,3.04438,1624961149,6379721,966151153,-658809996,,
194063868,3.09493,1625011708,6430278,982567766,-642443942,,
194114459,3.14553,1625062299,6480868,998995420,-626066879,,
194165038,3.19611,1625112877,6531446,1015418527,-609694350,,
194215632,3.24670,1625163472,6582039,1031846831,-593316641,,
194266663,3.29773,1625214504,6633069,1048417359,-576797145,,
194317756,3.34882,1625265597,6684162,1065008020,-560257577,,
194368004,3.39907,1625315846,6734420,1081327543,-543988303,,
194418561,3.44963,1625366402,6784965,1097739935,-527626467,,
194468659,3.49973,1625416501,6835064,1114007829,-511408672,,
194519695,3.55076,1625467538,6886098,1130579657,-494887881,,
194570278,3.60134,1625518121,6936680,1147004388,-478513733,,
194620809,3.65188,1625568652,6987211,1163412559,-462156093,,
194671879,3.70295,1625619722,7038280,1179995101,-445624621,,
194722416,3.75348,1625670259,7088815,1196404896,-429265363,,
194773481,3.80455,1625721325,7139882,1212986789,-412734536,,
194824532,3.85560,1625772376,7190931,1229563162,-396209214,,
194875083,3.90615,1625822928,7241481,1245977828,-379845100,,
194926113,3.95718,1625873958,7292511,1262548031,-363325927,,
194976677,4.00774,1625924523,7343074,1278966593,-346957930,,
195027719,4.05879,1625975564,7394115,1295540368,-330435196,,
195078780,4.10985,1626026625,7445175,1312120313,-313906312,,
195129307,4.16037,1626077154,7495702,1328526861,-297550293,,
195180349,4.21142,1626128196,7546743,1345100636,-281027560,,
195230918,4.26199,1626178764,7597311,1361520821,-264657943,,
195281514,4.31258,1626229362,7647908,1377950423,-248278939,,
195332109,4.36318,1626279957,7698501,1394379051,-231900906,,
195382955,4.41402,1626330815,7749359,1410893079,-215437736,,
195433487,4.46455,1626381335,7799878,1427297354,-199083981,,
195483780,4.51485,1626431629,7850170,1443627918,-182803711,,
195534747,4.56581,1626482596,7901147,1460180911,-166301685,,
195585409,4.61648,1626533258,7951798,1476628048,-149905210,,
195635940,4.66701,1626583789,8002328,1493035894,-133547895,,
195686346,4.71741,1626634196,8052733,1509403475,-117230721,,
195737023,4.76809,1626684874,8103422,1525862627,-100822247,,
195787470,4.81854,1626735321,8153856,1542239625,-84495696,,
195838006,4.86907,1626785857,8204391,1558649094,-68136763,,
195888556,4.91962,1626836408,8254941,1575063435,-51772973,,
195939086,4.97015,1626886937,8305470,1591470956,-35415981,,
195989153,5.02022,1626937005,8355537,1607728135,-19208870,,
196039717,5.07078,1626987569,8406100,1624146696,-2840873,,
196090226,5.12129,1627038079,8456608,1627031330,-6749,,
196140842,5.17191,1627088695,8507223,1627081945,-6750,,
196190990,5.22206,1627138844,8557370,1627132092,-6752,,
196241495,5.27256,1627189349,8607875,1627182597,-6752,,
196292031,5.32310,1627239884,8658410,1627233131,-6753,,
196342187,5.37325,1627290042,8708565,1627283287,-6755,,
196393231,5.42430,1627341086,8759609,1627334331,-6755,,
196443582,5.47465,1627391437,8809959,1627384680,-6757,,
196493931,5.52500,1627441787,8860307,1627435029,-6758,,
196544573,5.57564,1627492429,8910949,1627485671,-6758,,
196594661,5.62573,1627542517,8961036,1627535758,-6759,,
196644756,5.67582,1627592613,9011130,1627585852,-6761,,
196694871,5.72594,1627642728,9061245,1627635967,-6761,,
196745936,5.77700,1627693793,9112310,1627687031,-6762,,
196796985,5.82805,1627744843,9163357,1627738079,-6764,,
196847517,5.87858,1627795375,9213900,1627788621,-6754,,
196898555,5.92962,1627846412,9264926,1627839647,-6765,,
196949639,5.98071,1627897498,9316009,1627890730,-6768,,
197000643,6.03171,1627948502,9367013,1627941735,-6767,,
197051236,6.08230,1627999094,9417605,1627992326,-6768,,
197102266,6.13333,1628050125,9468634,1628043355,-6770,,
197152837,6.18390,1628100697,9519204,1628093926,-6771,,
197203856,6.23492,1628151716,9570223,1628144945,-6771,,
197254821,6.28589,1628202682,9621187,1628195909,-6773,,
197304952,6.33602,1628252813,9671317,1628246039,-6774,,
197355632,6.38670,1628303493,9721997,1628296719,-6774,,
197406699,6.43777,1628354561,9773064,1628347785,-6776,,
197456908,6.48797,1628404770,9823271,1628397993,-6777,,
197507889,6.53896,1628455751,9874252,1628448985,-6766,,
197558332,6.58940,1628506194,9924694,1628499416,-6778,,
197608863,6.63993,1628556726,9975224,1628549945,-6781,,
197659479,6.69055,1628607342,10025841,1628600562,-6780,,
197710518,6.74158,1628658382,10076878,1628651600,-6782,,
197761106,6.79217,1628708970,10127477,1628702198,-6772,,
197811255,6.84232,1628759119,10177615,1628752336,-6783,,
197861792,6.89286,1628809656,10228150,1628802872,-6784,,
197912839,6.94391,1628860704,10279197,1628853918,-6786,,
197963207,6.99427,1628911072,10329565,1628904286,-6786,,
198013648,7.04472,1628961513,10380004,1628954726,-6787,,
198063708,7.09478,1629011573,10430063,1629004784,-6789,,
198113881,7.14495,1629061747,10480236,1629054958,-6789,,
198164807,7.19587,1629112672,10531160,1629105882,-6790,,
198215812,7.24688,1629163678,10582165,1629156887,-6791,,
198265941,7.29701,1629213818,10632304,1629207025,-6793,,
198316463,7.34753,1629264330,10682815,1629257536,-6794,,
198366914,7.39798,1629314781,10733265,1629307986,-6795,,
198416994,7.44806,1629364861,10783344,1629358065,-6796,,
198467628,7.49869,1629415495,10833977,1629408699,-6796,,
198518288,7.54936,1629466156,10884637,1629459358,-6798,,
198569317,7.60038,1629517185,10935665,1629510386,-6799,,
198620141,7.65121,1629568010,10986489,1629561210,-6800,,
198671226,7.70229,1629619096,11037573,1629612295,-6801,,
198721815,7.75288,1629669685,11088162,1629662883,-6802,,
198772902,7.80397,1629720772,11139248,1629713970,-6802,,
198823142,7.85421,1629771013,11189487,1629764208,-6805,,
198874226,7.90529,1629822096,11240570,1629815291,-6805,,
198924582,7.95565,1629872453,11290927,1629865648,-6805,,
198975606,8.00667,1629923477,11341948,1629916670,-6807,,
199026662,8.05773,1629974534,11393005,1629967726,-6808,,
199077681,8.10875,1630025553,11444023,1630018745,-6808,,
199128264,8.15933,1630076137,11494605,1630069327,-6810,,
199179299,8.21037,1630127172,11545639,1630120361,-6811,,
199229883,8.26095,1630177756,11596222,1630170944,-6812,,
199280403,8.31147,1630228276,11646742,1630221463,-6813,,
199330948,8.36201,1630278822,11697286,1630272007,-6815,,
199381696,8.41276,1630329570,11748033,1630322755,-6815,,
199431754,8.46282,1630379629,11798091,1630372813,-6816,,
199482402,8.51347,1630430287,11848748,1630423470,-6817,,
199532779,8.56385,1630480654,11899114,1630473836,-6818,,
199583571,8.61464,1630531447,11949907,1630524628,-6819,,
199633928,8.66499,1630581804,12000262,1630574984,-6820,,
199684569,8.71564,1630632445,12050902,1630625624,-6821,,
199735290,8.76636,1630683167,12101623,1630676344,-6823,,
199785805,8.81687,1630733682,12152137,1630726858,-6824,,
199836434,8.86750,1630784311,12202766,1630777487,-6824,,
199886569,8.91764,1630834446,12252911,1630827632,-6814,,
199937009,8.96808,1630884886,12303339,1630878060,-6826,,
199987580,9.01865,1630935474,12353925,1630928647,-6827,,
200038545,9.06961,1630986423,12404874,1630979595,-6828,,
200088696,9.11976,1631036574,12455024,1631029745,-6829,,
200139105,9.17017,1631086984,12505433,1631080154,-6830,,
200189636,9.22070,1631137516,12555962,1631130684,-6832,,
200239689,9.27076,1631187569,12606015,1631180736,-6833,,
200290300,9.32137,1631238180,12656626,1631231347,-6833,,
200341225,9.37229,1631289106,12707549,1631282271,-6835,,
200391497,9.42256,1631339378,12757821,1631332543,-6835,,
200441652,9.47272,1631389532,12807975,1631382696,-6836,,
200492674,9.52374,1631440556,12858997,1631433718,-6838,,
200543714,9.57478,1631491596,12910037,1631484758,-6838,,
200594282,9.62535,1631542175,12960614,1631535336,-6839,,
200645318,9.67638,1631593201,13011638,1631586359,-6842,,
200696302,9.72737,1631644185,13062622,1631637344,-6841,,
200746466,9.77753,1631694348,13112785,1631687506,-6842,,
200797053,9.82812,1631744937,13163371,1631738092,-6845,,
200847660,9.87873,1631795544,13213979,1631788700,-6844,,
200898134,9.92920,1631846018,13264452,1631839173,-6845,,
200948211,9.97928,1631896096,13314527,1631889249,-6847,,
200999177,10.03024,1631947062,13365494,1631940215,-6847,,
201049750,10.08082,1631997645,13416076,1631990797,-6848,,
201116115,10.14718,1632064000,13482428,1632057150,-6850,1632064174,
201141348,10.17242,1632089234,13507663,1632082420,-6814,,
201192354,10.22342,1632140240,13558667,1632133592,-6648,,
201242911,10.27398,1632190797,13609223,1632184123,-6674,,
201293551,10.32462,1632241438,13659864,1632234834,-6604,,
201343994,10.37506,1632291881,13710306,1632285347,-6534,,
201394354,10.42542,1632342241,13760664,1632335776,-6465,,
201445367,10.47643,1632393255,13811689,1632386873,-6382,,
201495955,10.52702,1632443843,13862264,1632437518,-6325,,
201546307,10.57737,1632494195,13912616,1632487942,-6253,,
201596510,10.62758,1632544399,13962818,1632538214,-6185,,
201647565,10.67863,1632595454,14013873,1632589340,-6114,,
201698214,10.72928,1632646103,14064520,1632640059,-6044,,
201749041,10.78011,1632696931,14115347,1632690957,-5974,,
201799630,10.83070,1632747520,14165935,1632741617,-5903,,
201850146,10.88121,1632798036,14216451,1632792203,-5833,,
201900745,10.93181,1632848636,14267048,1632842872,-5764,,
201951316,10.98238,1632899207,14317619,1632893514,-5693,,
202001899,11.03297,1632949790,14368201,1632944167,-5623,,
202052919,11.08399,1633000811,14419221,1632995258,-5553,,
202103484,11.13455,1633051375,14469785,1633045894,-5481,,
202154044,11.18511,1633101936,14520344,1633096524,-5412,,
202204299,11.23537,1633152192,14570599,1633146849,-5343,,
202254390,11.28546,1633202282,14620689,1633197010,-5272,,
202304491,11.33556,1633252384,14670789,1633247180,-5204,,
202355103,11.38617,1633302997,14721411,1633297873,-5124,,
202414249,11.44532,1633362142,14780545,1633357090,-5052,,
202464967,11.49603,1633412861,14831263,1633407880,-4981,,
202515399,11.54647,1633463294,14881694,1633458382,-4912,,
202565591,11.59666,1633513485,14931885,1633508642,-4843,,
202616141,11.64721,1633564036,14982435,1633559264,-4772,,
202666306,11.69737,1633614202,15032599,1633609498,-4704,,
202717347,11.74841,1633665243,15083639,1633660611,-4632,,
202767703,11.79877,1633715599,15133995,1633711037,-4562,,
202818303,11.84937,1633766199,15184594,1633761706,-4493,,
202868864,11.89993,1633816760,15235154,1633812337,-4423,,
202919930,11.95100,1633867826,15286219,1633863475,-4351,,
202970476,12.00154,1633918374,15336765,1633914092,-4282,,
203021103,12.05217,1633969001,15387391,1633964789,-4212,,
203072151,12.10322,1634020049,15438440,1634015909,-4140,,
203123227,12.15429,1634071126,15489514,1634067055,-4071,,
203173400,12.20447,1634121299,15539686,1634117298,-4001,,
203224069,12.25514,1634171980,15590367,1634168051,-3929,,
203274609,12.30568,1634222509,15640894,1634218649,-3860,,
203325120,12.35619,1634273020,15691404,1634269230,-3790,,
203375262,12.40633,1634323161,15741556,1634319452,-3709,,
203426311,12.45738,1634374212,15792594,1634370562,-3650,,
203476797,12.50786,1634424698,15843080,1634421118,-3580,,
203527432,12.55850,1634475333,15893714,1634471823,-3510,,
203578459,12.60953,1634526373,15944753,1634522934,-3439,,
203629039,12.66011,1634576941,15995320,1634573572,-3369,,
203680063,12.71113,1634627965,16046343,1634624666,-3299,,
203730598,12.76167,1634678500,16096877,1634675271,-3229,,
203781655,12.81272,1634729558,16147934,1634726400,-3158,,
203832211,12.86328,1634780113,16198488,1634777026,-3087,,
203883258,12.91432,1634831162,16249536,1634828145,-3017,,
203933786,12.96485,1634881689,16300062,1634878742,-2947,,
203984355,13.01542,1634932258,16350630,1634929381,-2877,,
204034913,13.06598,1634982818,16401188,1634980011,-2807,,
204085947,13.11701,1635033852,16452221,1635031116,-2736,,
204137004,13.16807,1635084909,16503278,1635082243,-2666,,
204187585,13.21865,1635135491,16553858,1635132895,-2596,,
204238091,13.26916,1635185997,16604364,1635183471,-2526,,
204288662,13.31973,1635236568,16654933,1635234113,-2455,,
204338967,13.37003,1635286874,16705238,1635284487,-2387,,
204389993,13.42106,1635337899,16756262,1635335584,-2315,,
204440156,13.47122,1635388063,16806425,1635385817,-2246,,
204490868,13.52193,1635438776,16857136,1635436600,-2176,,
204541081,13.57215,1635488989,16907349,1635486883,-2106,,
204592176,13.62324,1635540084,16958443,1635538049,-2035,,
204643177,13.67424,1635591086,17009444,1635589121,-1965,,
204693762,13.72483,1635641672,17060029,1635639778,-1894,,
204744777,13.77584,1635692686,17111042,1635690862,-1824,,
204795381,13.82645,1635743291,17161646,1635741538,-1753,,
204846357,13.87742,1635794266,17212620,1635792583,-1683,,
204897395,13.92846,1635845305,17263658,1635843693,-1612,,
204947568,13.97864,1635895478,17313830,1635893934,-1544,,
204998376,14.02944,1635946287,17364638,1635944814,-1473,,
205049441,14.08051,1635997351,17415702,1635995950,-1401,,
205100491,14.13156,1636048403,17466751,1636047071,-1332,,
205151560,14.18263,1636099472,17517821,1636098212,-1260,,
205202610,14.23368,1636150523,17568871,1636149334,-1189,,
205253642,14.28471,1636201555,17619900,1636200435,-1120,,
205304693,14.33576,1636252606,17670951,1636251557,-1049,,
205355563,14.38663,1636303476,17721820,1636302499,-977,,
205406228,14.43730,1636354142,17772485,1636353234,-908,,
205456778,14.48785,1636404692,17823033,1636403854,-838,,
205507835,14.53890,1636455749,17874091,1636454994,-755,,
205558409,14.58948,1636506323,17924663,1636505627,-696,,
205608817,14.63988,1636556731,17975070,1636556104,-627,,
205659128,14.69019,1636607042,18025381,1636606485,-557,,
205709362,14.74043,1636657277,18075614,1636656790,-487,,
205759481,14.79055,1636707397,18125732,1636706978,-419,,
205809725,14.84079,1636757640,18175976,1636757292,-348,,
205860094,14.89116,1636808009,18226344,1636807731,-278,,
205910288,14.94135,1636858205,18276538,1636857995,-210,,
205960846,14.99191,1636908762,18327095,1636908623,-139,,
206011392,15.04246,1636959309,18377653,1636959252,-57,,
206062418,15.09348,1637010336,18428665,1637010336,0,,
206112968,15.14404,1637060886,18479216,1637060958,72,,
206164019,15.19509,1637111937,18530265,1637112013,76,,
206214591,15.24566,1637162509,18580836,1637162583,74,,
206265628,15.29669,1637213547,18631872,1637213620,73,,
206316686,15.34775,1637264605,18682931,1637264678,73,,
206367226,15.39829,1637315146,18733469,1637315217,71,,
206418277,15.44934,1637366197,18784519,1637366267,70,,
206469375,15.50044,1637417295,18835617,1637417367,72,,
206520383,15.55145,1637468304,18886624,1637468371,67,,
206571427,15.60249,1637519348,18937668,1637519415,67,,
206622463,15.65353,1637570383,18988703,1637570450,67,,
206673517,15.70458,1637621439,19039756,1637621503,64,,
206724056,15.75512,1637671978,19090295,1637672042,64,,
206774623,15.80569,1637722545,19140862,1637722609,64,,
206825138,15.85620,1637773061,19191376,1637773123,62,,
206875197,15.90626,1637823120,19241434,1637823182,62,,
206925904,15.95697,1637873827,19292140,1637873888,61,,
206976360,16.00743,1637924284,19342595,1637924342,58,,
207027419,16.05849,1637975343,19393653,1637975401,58,,
207077627,16.10869,1638025550,19443861,1638025608,58,,
207128665,16.15973,1638076590,19494898,1638076646,56,,
207179743,16.21081,1638127667,19545975,1638127722,55,,
207230779,16.26185,1638178704,19597011,1638178758,54,,
207281889,16.31296,1638229815,19648121,1638229868,53,,
