Server clock before sync: 57
Synchronizing server_clock...
[1/51] [2/51] [3/51] [4/51] [5/51] [6/51] [7/51] [8/51] [9/51] [10/51] 
[11/51] [12/51] [13/51] [14/51] [15/51] [16/51] [17/51] [18/51] [19/51] [20/51] 
[21/51] [22/51] [23/51] [24/51] [25/51] [26/51] [27/51] [28/51] [29/51] [30/51] 
[31/51] [32/51] [33/51] [34/51] [35/51] [36/51] [37/51] [38/51] [39/51] [40/51] 
[41/51] [42/51] [43/51] [44/51] [45/51] [46/51] [47/51] [48/51] [49/51] [50/51] 
Best Server Sync RTT: 65956, Worst Server Sync RTT: 70587
Average RTT: 66450.080000
Est Server Time: 1621933049, Computed Server Time offset: 1618610111
Server clock after sync: 1621933050

====== SIMULATION METADATA     =====
Server IP: 128.83.139.94, Port: 8010
Server Drift: 10.00 PPM, Client VHC Drift: -10.00 PPM
Relative Drift Weight: -3.50
Local Server Time Error: 32978
Rapport Period: 60000000
Amortization Period: 5000000
Simulation runtime: 1800 seconds
Simulation runtime: 1800000000 usec, 
 Start: 190985256, End: 1990985256
====== SIMULATION OUTPUT START =====
Current Real Time,Real Time Elapsed (sec),Local Server Time,Hardware Clock Time,Software Clock Time,Error,Remote Est Time,
190985390,0.00013,1621933185,3323008,3323009,-1618610176,,
191064362,0.07911,1622012158,3401980,3401981,-1618610177,1622005718,
191089521,0.10426,1622037317,3427140,11572276,-1610465041,,
191140083,0.15483,1622087880,3477701,27990482,-1594097398,,
191191160,0.20590,1622138957,3528776,44575919,-1577563038,,
191242167,0.25691,1622189965,3579784,61139275,-1561050690,,
191292741,0.30749,1622240539,3630357,77561053,-1544679486,,
191343853,0.35860,1622291650,3681467,94157855,-1528133795,,
191393933,0.40868,1622341731,3731547,110419870,-1511921861,,
191444971,0.45971,1622392770,3782584,126992643,-1495400127,,
191496028,0.51077,1622443827,3833640,143571585,-1478872242,,
191547074,0.56182,1622494873,3884687,160147280,-1462347593,,
191598119,0.61286,1622545919,3935730,176722326,-1445823593,,
191648681,0.66343,1622596481,3986292,193140857,-1429455624,,
191699226,0.71397,1622647026,4036836,209553542,-1413093484,,
191750271,0.76502,1622698072,4087880,226128588,-1396569484,,
191800810,0.81555,1622748610,4138418,242539000,-1380209610,,
191851367,0.86611,1622799168,4188974,258955583,-1363843585,,
191901421,0.91617,1622849222,4239028,275209480,-1347639742,,
191952477,0.96722,1622900279,4290083,291788097,-1331112182,,
192003512,1.01826,1622951313,4341117,308359896,-1314591417,,
192054058,1.06880,1623001860,4391663,324772906,-1298228954,,
192104642,1.11939,1623052445,4442246,341202153,-1281850292,,
192155267,1.17001,1623103069,4492870,357636919,-1265466150,,
192205862,1.22061,1623153666,4543466,374066815,-1249086851,,
192256894,1.27164,1623204697,4594496,390637315,-1232567382,,
192307456,1.32220,1623255260,4645057,407055520,-1216199740,,
192358030,1.37277,1623305846,4695642,423481519,-1199824327,,
192408568,1.42331,1623356372,4746168,439888035,-1183468337,,
192458801,1.47355,1623406606,4796400,456199732,-1167206874,,
192509844,1.52459,1623457649,4847443,472774129,-1150683520,,
192560396,1.57514,1623508202,4897994,489189412,-1134318790,,
192610941,1.62569,1623558747,4948539,505602098,-1117956649,,
192661516,1.67626,1623609321,4999113,522024525,-1101584796,,
192712573,1.72732,1623660380,5050169,538603792,-1085056588,,
192763581,1.77832,1623711388,5101177,555166823,-1068544565,,
192814145,1.82889,1623761951,5151739,571585354,-1052176597,,
192864680,1.87942,1623812488,5202274,587995441,-1035817047,,
192914737,1.92948,1623862546,5252331,604249663,-1019612883,,
192965273,1.98002,1623913080,5302865,620659426,-1003253654,,
193016342,2.03109,1623964151,5353934,637242265,-986721886,,
193067373,2.08212,1624015181,5404964,653812765,-970202416,,
193117993,2.13274,1624065802,5455583,670250129,-953815673,,
193168488,2.18323,1624116298,5506078,686646903,-937469395,,
193219514,2.23426,1624167334,5557114,703219027,-920948307,,
193270600,2.28534,1624218409,5608188,719803814,-904414595,,
193321393,2.33614,1624269203,5658981,736297355,-887971848,,
193371977,2.38672,1624319788,5709565,752723030,-871596758,,
193422544,2.43729,1624370355,5760130,769142534,-855227821,,
193473162,2.48791,1624420974,5810748,785579249,-838841725,,
193523775,2.53852,1624471587,5861361,802014340,-822457247,,
193574375,2.58912,1624522187,5911959,818444885,-806077302,,
193625399,2.64014,1624573211,5962982,835016035,-789557176,,
193676449,2.69119,1624624262,6014032,851590106,-773034156,,
193727521,2.74227,1624675333,6065103,868173920,-756501413,,
193778569,2.79331,1624726383,6116151,884749940,-739976443,,
193829600,2.84434,1624777413,6167181,901324011,-723453402,,
193880652,2.89540,1624828465,6218232,917898083,-706930382,,
193930709,2.94545,1624878524,6268288,934151980,-690726544,,
193981768,2.99651,1624929582,6319347,950731897,-674197685,,
194032330,3.04707,1624980157,6369921,967154324,-657825833,,
194082968,3.09771,1625030784,6420545,983593312,-641437472,,
194133957,3.14870,1625081772,6471534,1000150498,-624931274,,
194184046,3.19879,1625131861,6521622,1016414786,-608717075,,
194234678,3.24942,1625182494,6572253,1032855722,-592326772,,
194285714,3.30046,1625233531,6623290,1049428495,-575805036,,
194336336,3.35108,1625284153,6673910,1065866184,-559417969,,
194386587,3.40133,1625334417,6724172,1082187298,-543147119,,
194437112,3.45186,1625384930,6774696,1098593165,-526791765,,
194487715,3.50246,1625435532,6825287,1115021437,-510414095,,
194538716,3.55346,1625486535,6876288,1131582195,-493904340,,
194589269,3.60401,1625537088,6926840,1147997478,-477539610,,
194640371,3.65511,1625588190,6977942,1164591358,-460996832,,
194691373,3.70612,1625639193,7028943,1181152441,-444486752,,
194741953,3.75670,1625689773,7079521,1197576491,-428113282,,
194793002,3.80775,1625740822,7130570,1214153161,-411587661,,
194844031,3.85878,1625791851,7181608,1230726258,-395065593,,
194895120,3.90986,1625842941,7232686,1247312020,-378530921,,
194946168,3.96091,1625893989,7283735,1263889014,-362004975,,
194996708,4.01145,1625944542,7334286,1280303648,-345640894,,
195047744,4.06249,1625995566,7385309,1296871875,-329123691,,
195098779,4.11352,1626046600,7436343,1313443673,-312602927,,
195149350,4.16409,1626097184,7486925,1329869023,-296228161,,
195200382,4.21513,1626148205,7537944,1346435951,-279712254,,
195251004,4.26575,1626198827,7588566,1362873640,-263325187,,
195302010,4.31675,1626249834,7639571,1379436346,-246813488,,
195352124,4.36687,1626299947,7689684,1395708752,-230591195,,
195402723,4.41747,1626350547,7740283,1412139622,-214210925,,
195453538,4.46828,1626401363,7791097,1428639982,-197761381,,
195503804,4.51855,1626451629,7841363,1444962071,-181489558,,
195554288,4.56903,1626502112,7891845,1461354624,-165147488,,
195604938,4.61968,1626552764,7942495,1477802054,-148750710,,
195655782,4.67053,1626603608,7993338,1494311831,-132291777,,
195706326,4.72107,1626654162,8043892,1510727439,-115926723,,
195757372,4.77212,1626705199,8094927,1527299887,-99405312,,
195807949,4.82269,1626755776,8145503,1543722964,-83032812,,
195858527,4.87327,1626806353,8196080,1560146365,-66659988,,
195909575,4.92432,1626857403,8247129,1576722710,-50134693,,
195960135,4.97488,1626907962,8297697,1593143189,-33764773,,
196010686,5.02543,1626958523,8348247,1609557822,-17400701,,
196061673,5.07642,1627009501,8399235,1626114684,-894817,,
196112275,5.12702,1627060103,8449825,1627053564,-6539,,
196162891,5.17764,1627110720,8500450,1627104190,-6530,,
196212969,5.22771,1627160799,8550518,1627154258,-6541,,
196263519,5.27826,1627211349,8601067,1627204807,-6542,,
196313583,5.32833,1627261413,8651131,1627254870,-6543,,
196364209,5.37895,1627312040,8701756,1627305496,-6544,,
196414807,5.42955,1627362637,8752353,1627356093,-6544,,
196465149,5.47989,1627412979,8802693,1627406433,-6546,,
196515954,5.53070,1627463798,8853511,1627457251,-6547,,
196566142,5.58089,1627513973,8903686,1627507425,-6548,,
196616694,5.63144,1627564525,8954237,1627557976,-6549,,
196666800,5.68154,1627614633,9004343,1627608082,-6551,,
196717360,5.73210,1627665204,9054914,1627658653,-6551,,
196767962,5.78271,1627715794,9105503,1627709242,-6552,,
196818963,5.83371,1627766796,9156503,1627760243,-6553,,
196869540,5.88428,1627817384,9207091,1627810831,-6553,,
196920618,5.93536,1627868452,9258157,1627861897,-6555,,
196971665,5.98641,1627919500,9309203,1627912942,-6558,,
197022714,6.03746,1627970549,9360252,1627963992,-6557,,
197073763,6.08851,1628021598,9411300,1628015039,-6559,,
197124811,6.13955,1628072647,9462347,1628066086,-6561,,
197175859,6.19060,1628123695,9513396,1628117135,-6560,,
197226810,6.24155,1628174646,9564346,1628168085,-6561,,
197277355,6.29210,1628225190,9614889,1628218628,-6562,,
197327816,6.34256,1628275653,9665350,1628269090,-6563,,
197378312,6.39306,1628326149,9715845,1628319585,-6564,,
197428856,6.44360,1628376692,9766388,1628370127,-6565,,
197478929,6.49367,1628426767,9816460,1628420200,-6567,,
197529691,6.54444,1628477528,9867221,1628470961,-6567,,
197580310,6.59505,1628528147,9917840,1628521579,-6568,,
197630881,6.64562,1628578719,9968410,1628572149,-6570,,
197681507,6.69625,1628629346,10019036,1628622776,-6570,,
197732525,6.74727,1628680363,10070053,1628673793,-6570,,
197782628,6.79737,1628730468,10120156,1628723895,-6573,,
197833222,6.84797,1628781062,10170750,1628774489,-6573,,
197883803,6.89855,1628831643,10221330,1628825069,-6574,,
197934439,6.94918,1628882280,10271964,1628875704,-6576,,
197985137,6.99988,1628932977,10322662,1628926401,-6576,,
198036174,7.05092,1628984015,10373698,1628977438,-6577,,
198086357,7.10110,1629034198,10423879,1629027619,-6579,,
198136408,7.15115,1629084250,10473931,1629077671,-6579,,
198187332,7.20208,1629135174,10524854,1629128594,-6580,,
198237848,7.25259,1629185691,10575369,1629179109,-6582,,
198287947,7.30269,1629235790,10625469,1629229208,-6582,,
198338545,7.35329,1629286388,10676065,1629279805,-6583,,
198388978,7.40372,1629336822,10726497,1629330248,-6574,,
198439553,7.45430,1629387396,10777072,1629380811,-6585,,
198490150,7.50489,1629437994,10827668,1629431408,-6586,,
198540771,7.55551,1629488616,10878299,1629482039,-6577,,
198591842,7.60659,1629539687,10929359,1629533098,-6589,,
198642168,7.65691,1629590013,10979685,1629583435,-6578,,
198692768,7.70751,1629640613,11030282,1629634022,-6591,,
198743382,7.75813,1629691228,11080896,1629684636,-6592,,
198794124,7.80887,1629741969,11131638,1629735377,-6592,,
198845198,7.85994,1629793044,11182711,1629786450,-6594,,
198895808,7.91055,1629843654,11233320,1629837059,-6595,,
198946601,7.96134,1629894447,11284113,1629887852,-6595,,
198997148,8.01189,1629944995,11334659,1629938398,-6597,,
199048170,8.06291,1629996018,11385680,1629989425,-6593,,
199099210,8.11395,1630047057,11436719,1630040459,-6598,,
199150280,8.16502,1630098128,11487789,1630091528,-6600,,
199201323,8.21607,1630149172,11538831,1630142571,-6601,,
199252459,8.26720,1630200308,11589967,1630193707,-6601,,
199302957,8.31770,1630250807,11640465,1630244204,-6603,,
199353458,8.36820,1630301308,11690964,1630294704,-6604,,
199403735,8.41848,1630351585,11741240,1630344980,-6605,,
199454406,8.46915,1630402257,11791911,1630395651,-6606,,
199505221,8.51996,1630453071,11842725,1630446464,-6607,,
199555799,8.57054,1630503650,11893302,1630497042,-6608,,
199606130,8.62087,1630553982,11943633,1630547373,-6609,,
199656933,8.67168,1630604784,11994435,1630598174,-6610,,
199707253,8.72200,1630655104,12044764,1630648504,-6600,,
199757812,8.77256,1630705665,12095314,1630699053,-6612,,
199808400,8.82314,1630756253,12145900,1630749640,-6613,,
199859030,8.87377,1630806882,12196529,1630800268,-6614,,
199909452,8.92420,1630857306,12246951,1630850691,-6615,,
199960031,8.97477,1630907885,12297530,1630901269,-6616,,
200010165,9.02491,1630958019,12347663,1630951402,-6617,,
200060677,9.07542,1631008532,12398175,1631001914,-6618,,
200111061,9.12580,1631058915,12448557,1631052296,-6619,,
200161209,9.17595,1631109064,12498704,1631102444,-6620,,
200212171,9.22691,1631160027,12549667,1631153406,-6621,,
200262774,9.27752,1631210630,12600268,1631204008,-6622,,
200313823,9.32857,1631261679,12651317,1631255056,-6623,,
200364282,9.37903,1631312139,12701776,1631305515,-6624,,
200414560,9.42930,1631362427,12752063,1631355802,-6625,,
200465146,9.47989,1631413002,12802637,1631406376,-6626,,
200516196,9.53094,1631464054,12853686,1631457426,-6628,,
200566757,9.58150,1631514615,12904248,1631507987,-6628,,
200617824,9.63257,1631565682,12955314,1631559053,-6629,,
200668850,9.68359,1631616708,13006338,1631610077,-6631,,
200719357,9.73410,1631667215,13056845,1631660594,-6621,,
200769507,9.78425,1631717365,13106994,1631710733,-6632,,
200820124,9.83487,1631767984,13157611,1631761350,-6634,,
200871004,9.88575,1631818864,13208490,1631812230,-6634,,
200921180,9.93592,1631869039,13258665,1631862404,-6635,,
200972234,9.98698,1631920094,13309718,1631913458,-6636,,
201022759,10.03750,1631970620,13360244,1631963983,-6637,,
201073750,10.08849,1632021611,13411233,1632014973,-6638,,
201124311,10.13906,1632072172,13461793,1632065533,-6639,,
201175409,10.19015,1632123270,13512891,1632116630,-6640,,
201232571,10.24732,1632180434,13570053,1632173793,-6641,,
201283445,10.29819,1632231307,13620925,1632224664,-6643,,
201334984,10.34973,1632282847,13672463,1632276203,-6644,,
201385257,10.40000,1632333120,13722736,1632326476,-6644,,
201435850,10.45059,1632383714,13773328,1632377068,-6646,,
201485938,10.50068,1632433802,13823416,1632427155,-6647,,
201536559,10.55130,1632484423,13874037,1632477777,-6646,,
201586997,10.60174,1632534862,13924473,1632528213,-6649,,
201638055,10.65280,1632585920,13975530,1632579270,-6650,,
201688614,10.70336,1632636490,14026101,1632629840,-6650,,
201739049,10.75379,1632686913,14076523,1632680262,-6651,,
201789588,10.80433,1632737454,14127061,1632730801,-6653,,
201840188,10.85493,1632788054,14177661,1632781400,-6654,,
201890729,10.90547,1632838595,14228201,1632831941,-6654,,
201941316,10.95606,1632889183,14278788,1632882527,-6656,,
201992390,11.00713,1632940257,14329861,1632933601,-6656,,
202043410,11.05815,1632991276,14380880,1632984620,-6656,,
202094462,11.10921,1633042330,14431932,1633035672,-6658,,
202145544,11.16029,1633093412,14483013,1633086752,-6660,,
202195817,11.21056,1633143685,14533285,1633137025,-6660,,
202246415,11.26116,1633194296,14583895,1633187634,-6662,,
202296975,11.31172,1633244844,14634442,1633238181,-6663,,
202347571,11.36232,1633295440,14685038,1633288787,-6653,,
202398376,11.41312,1633346246,14735841,1633339581,-6665,,
202448943,11.46369,1633396812,14786407,1633390146,-6666,,
202499902,11.51465,1633447772,14837367,1633441106,-6666,,
202550520,11.56526,1633498401,14887994,1633491733,-6668,,
202601127,11.61587,1633548998,14938589,1633542328,-6670,,
202651692,11.66644,1633599563,14989154,1633592893,-6670,,
202701810,11.71655,1633649681,15039271,1633643011,-6670,,
202752161,11.76690,1633700033,15089622,1633693361,-6672,,
202802717,11.81746,1633750588,15140177,1633743916,-6672,,
202853370,11.86811,1633801243,15190839,1633794579,-6664,,
202904363,11.91911,1633852237,15241822,1633845561,-6676,,
202955361,11.97011,1633903234,15292819,1633896559,-6675,,
203005583,12.02033,1633953457,15343041,1633946781,-6676,,
203056640,12.07138,1634004514,15394096,1633997836,-6678,,
203107211,12.12195,1634055084,15444666,1634048405,-6679,,
203157364,12.17211,1634105238,15494818,1634098558,-6680,,
203208419,12.22316,1634156304,15545884,1634149623,-6681,,
203258998,12.27374,1634206872,15596451,1634200190,-6682,,
203309117,12.32386,1634256993,15646570,1634250309,-6684,,
203359665,12.37441,1634307541,15697117,1634300857,-6684,,
203410306,12.42505,1634358192,15747767,1634351507,-6685,,
203460906,12.47565,1634408783,15798358,1634402097,-6686,,
203511853,12.52660,1634459730,15849303,1634453043,-6687,,
203562468,12.57721,1634510345,15899918,1634503657,-6688,,
203613496,12.62824,1634561374,15950956,1634554696,-6678,,
203664541,12.67929,1634612419,16001990,1634605729,-6690,,
203715604,12.73035,1634663482,16053051,1634656791,-6691,,
203766649,12.78139,1634714528,16104096,1634707836,-6692,,
203817697,12.83244,1634765576,16155144,1634758883,-6693,,
203868726,12.88347,1634816604,16206171,1634809910,-6694,,
203919332,12.93408,1634867212,16256777,1634860517,-6695,,
203969842,12.98459,1634917722,16307286,1634911025,-6697,,
204020401,13.03514,1634968281,16357844,1634961584,-6697,,
204071426,13.08617,1635019307,16408868,1635012608,-6699,,
204121989,13.13673,1635069870,16459432,1635063171,-6699,,
204173062,13.18781,1635120943,16510503,1635114243,-6700,,
204223632,13.23838,1635171514,16561073,1635164812,-6702,,
204274671,13.28941,1635222553,16612111,1635215851,-6702,,
204325702,13.34045,1635273584,16663142,1635266881,-6703,,
204376477,13.39122,1635324360,16713915,1635317655,-6705,,
204426655,13.44140,1635374538,16764093,1635367833,-6705,,
204476876,13.49162,1635424769,16814324,1635418063,-6706,,
204527003,13.54175,1635474896,16864449,1635468189,-6707,,
204577140,13.59188,1635525034,16914587,1635518326,-6708,,
204627674,13.64242,1635575557,16965109,1635568848,-6709,,
204678259,13.69300,1635626144,17015693,1635619432,-6712,,
204729271,13.74401,1635677156,17066715,1635670455,-6701,,
204779875,13.79462,1635727760,17117309,1635721048,-6712,,
204830922,13.84567,1635778808,17168354,1635772093,-6715,,
204881911,13.89666,1635829797,17219343,1635823082,-6715,,
204932539,13.94728,1635880424,17269970,1635873709,-6715,,
204982885,13.99763,1635930771,17320315,1635924054,-6717,,
205033955,14.04870,1635981841,17371384,1635975124,-6717,,
205084984,14.09973,1636032871,17422423,1636026163,-6708,,
205135552,14.15030,1636083440,17472980,1636076720,-6720,,
205186559,14.20130,1636134447,17523986,1636127726,-6721,,
205236652,14.25140,1636184540,17574079,1636177819,-6721,,
205287675,14.30242,1636235564,17625102,1636228841,-6723,,
205338748,14.35349,1636286636,17676173,1636279913,-6723,,
205389245,14.40399,1636337134,17726670,1636330410,-6724,,
205439774,14.45452,1636387674,17777209,1636380949,-6725,,
205490844,14.50559,1636438733,17828267,1636432006,-6727,,
205541438,14.55618,1636489327,17878861,1636482600,-6727,,
205592285,14.60703,1636540176,17929708,1636533447,-6729,,
205642881,14.65762,1636590772,17980303,1636584042,-6730,,
205693395,14.70814,1636641286,18030816,1636634556,-6730,,
205744431,14.75918,1636692323,18081851,1636685591,-6732,,
205795026,14.80977,1636742917,18132445,1636736184,-6733,,
205845579,14.86032,1636793471,18182998,1636786738,-6733,,
205896260,14.91100,1636844152,18233678,1636837417,-6735,,
205946857,14.96160,1636894750,18284275,1636888014,-6736,,
205997916,15.01266,1636945808,18335332,1636939072,-6736,,
206048464,15.06321,1636996358,18385881,1636989620,-6738,,
206099475,15.11422,1637047368,18436890,1637040629,-6739,,
206150518,15.16526,1637098411,18487932,1637091671,-6740,,
206201571,15.21631,1637149465,18538985,1637142724,-6741,,
206252605,15.26735,1637200500,18590018,1637193757,-6743,,
206303196,15.31794,1637251091,18640608,1637244348,-6743,,
206353711,15.36846,1637301615,18691133,1637294872,-6743,,
206404259,15.41900,1637352154,18741670,1637345409,-6745,,
206455309,15.47005,1637403204,18792719,1637396458,-6746,,
206506391,15.52113,1637454287,18843801,1637447541,-6746,,
206557435,15.57218,1637505332,18894844,1637498583,-6749,,
206608455,15.62320,1637556352,18945864,1637549604,-6748,,
206659001,15.67375,1637606898,18996409,1637600149,-6749,,
206710060,15.72480,1637657957,19047467,1637651206,-6751,,
206761130,15.77587,1637709028,19098536,1637702276,-6752,,
206811629,15.82637,1637759527,19149034,1637752774,-6753,,
206861683,15.87643,1637809581,19199088,1637802828,-6753,,
206912238,15.92698,1637860137,19249642,1637853382,-6755,,
206962732,15.97748,1637910631,19300136,1637903875,-6756,,
207013373,16.02812,1637961273,19350776,1637954516,-6757,,
207063597,16.07834,1638011497,19401000,1638004739,-6758,,
207114677,16.12942,1638062577,19452079,1638055818,-6759,,
207165728,16.18047,1638113628,19503129,1638106869,-6759,,
207216277,16.23102,1638164178,19553677,1638157417,-6761,,
207266858,16.28160,1638214758,19604257,1638207996,-6762,,
