Server clock before sync: 28
Synchronizing server_clock...
[1/51] [2/51] [3/51] [4/51] [5/51] [6/51] [7/51] [8/51] [9/51] [10/51] 
[11/51] [12/51] [13/51] [14/51] [15/51] [16/51] [17/51] [18/51] [19/51] [20/51] 
[21/51] [22/51] [23/51] [24/51] [25/51] [26/51] [27/51] [28/51] [29/51] [30/51] 
[31/51] [32/51] [33/51] [34/51] [35/51] [36/51] [37/51] [38/51] [39/51] [40/51] 
[41/51] [42/51] [43/51] [44/51] [45/51] [46/51] [47/51] [48/51] [49/51] [50/51] 
Best Server Sync RTT: 234837, Worst Server Sync RTT: 236639
Average RTT: 235106.740000
Est Server Time: 15942163397, Computed Server Time offset: 15930407676
Server clock after sync: 15942163398

====== SIMULATION METADATA     =====
Server IP: 128.83.139.94, Port: 8020
Server Drift: 20.00 PPM, Client VHC Drift: -20.00 PPM
Relative Drift Weight: -3.50
Local Server Time Error: 117418
Rapport Period: 10000000
Amortization Period: 5000000
Simulation runtime: 1800 seconds
Simulation runtime: 1800000000 usec, 
 Start: 14525231624, End: 16325231624
====== SIMULATION OUTPUT START =====
Current Real Time,Real Time Elapsed (sec),Local Server Time,Hardware Clock Time,Software Clock Time,Error,Remote Est Time,
14525231738,0.00011,15942163513,11755368,11755369,-15930408144,,
14525466823,0.23520,15942398601,11990446,11990447,-15930408154,15942398426,
14525492185,0.26056,15942423963,12015809,92827582,-15849596381,,
14525542833,0.31121,15942474613,12066455,254240517,-15688234096,,
14525593214,0.36159,15942524994,12116835,414805688,-15527719306,,
14525643790,0.41217,15942575572,12167411,575995527,-15366580045,,
14525694375,0.46275,15942626158,12217994,737210862,-15205415296,,
14525745010,0.51339,15942676793,12268628,898585552,-15044091241,,
14525796029,0.56441,15942727812,12319645,1061177706,-14881550106,,
14525846654,0.61503,15942778439,12370269,1222523712,-14720254727,,
14525896905,0.66528,15942828691,12420519,1382674562,-14560154129,,
14525948105,0.71648,15942879893,12471719,1545853140,-14397026753,,
14525998336,0.76671,15942930124,12521949,1705937061,-14236993063,,
14526048439,0.81681,15942980228,12572052,1865619411,-14077360817,,
14526098728,0.86710,15943030516,12622337,2025881809,-13917148707,,
14526149208,0.91758,15943080997,12672816,2186762501,-13756318496,,
14526200268,0.96864,15943132060,12723877,2349498074,-13593633986,,
14526250831,1.01921,15943182623,12774438,2510640107,-13432542516,,
14526301345,1.06972,15943233138,12824951,2671629159,-13271603979,,
14526351919,1.12030,15943283712,12875522,2832806250,-13110477462,,
14526402944,1.17132,15943334738,12926546,2995423901,-12947910837,,
14526453999,1.22237,15943385794,12977601,3158137165,-12785248629,,
14526504577,1.27295,15943436373,13028177,3319330191,-12624106182,,
14526555597,1.32397,15943487394,13079197,3481931907,-12461555487,,
14526606645,1.37502,15943538443,13130242,3644619674,-12298918769,,
14526657191,1.42557,15943588989,13180788,3805710713,-12137878276,,
14526708236,1.47661,15943640035,13231832,3968392106,-11975247929,,
14526758818,1.52719,15943690617,13282412,4129594693,-11814095924,,
14526809354,1.57773,15943741155,13332948,4290657049,-11653084106,,
14526859627,1.62800,15943791429,13383219,4450878015,-11492913414,,
14526910190,1.67857,15943842004,13433792,4612055105,-11331786899,,
14526960748,1.72912,15943892551,13484337,4773149332,-11170743219,,
14527011295,1.77967,15943943098,13534883,4934240371,-11009702727,,
14527061878,1.83025,15943993683,13585466,5095455706,-10848537977,,
14527112913,1.88129,15944044719,13636500,5258102042,-10685942677,,
14527163531,1.93191,15944095337,13687115,5419416177,-10524679160,,
14527214373,1.98275,15944146181,13737956,5581453779,-10362692402,,
14527264955,2.03333,15944196764,13788538,5742659553,-10201537211,,
14527315582,2.08396,15944247390,13839163,5904005559,-10040241831,,
14527366632,2.13501,15944298442,13890212,6066706075,-9877592367,,
14527417238,2.18561,15944349049,13940817,6227985152,-9716363897,,
14527468288,2.23666,15944400100,13991866,6390682480,-9553717620,,
14527519314,2.28769,15944451127,14042901,6553335189,-9391115938,,
14527570392,2.33877,15944502206,14093968,6716089885,-9228412321,,
14527621437,2.38981,15944553251,14145012,6878771278,-9065781973,,
14527672488,2.44086,15944604303,14196061,7041468607,-8903135696,,
14527723535,2.49191,15944655351,14247106,7204156374,-8740498977,,
14527774564,2.54294,15944706398,14298152,7366840954,-8577865444,,
14527825635,2.59401,15944757453,14349204,7529551031,-8415206422,,
14527876683,2.64506,15944808502,14400252,7692241985,-8252566517,,
14527927243,2.69562,15944859062,14450809,7853374456,-8091484606,,
14527978340,2.74672,15944910159,14501905,8016221577,-7928688582,,
14528029369,2.79774,15944961190,14552933,8178851977,-7766109213,,
14528079781,2.84816,15945011614,14603356,8339551005,-7605460609,,
14528130340,2.89872,15945062163,14653902,8500648419,-7444413744,,
14528181254,2.94963,15945113077,14704814,8662905930,-7282207147,,
14528232156,3.00053,15945163979,14755715,8825131570,-7120032409,,
14528283034,3.05141,15945214859,14806592,8987280721,-6957934138,,
14528333167,3.10154,15945265003,14856734,9147087366,-6798177637,,
14528384087,3.15246,15945315914,14907643,9309341690,-6635974224,,
14528434247,3.20262,15945366075,14957801,9469199329,-6476166746,,
14528484878,3.25325,15945416707,15008431,9630561270,-6314855437,,
14528535469,3.30384,15945467298,15059022,9791795728,-6153671570,,
14528586108,3.35448,15945517938,15109659,9953183166,-5992334772,,
14528636661,3.40504,15945568503,15160223,10114331573,-5831236930,,
14528687235,3.45561,15945619067,15210784,10275476792,-5670142275,,
14528737356,3.50573,15945669189,15260903,10435206948,-5510462241,,
14528788387,3.55676,15945720220,15311933,10597843722,-5347876498,,
14528839208,3.60758,15945771042,15362753,10759814395,-5185956647,,
14528889835,3.65821,15945821670,15413379,10921163588,-5024658082,,
14528940854,3.70923,15945872690,15464397,11083762117,-4862110573,,
14528991890,3.76027,15945923726,15515431,11246411639,-4699512087,,
14529042012,3.81039,15945973850,15565553,11406151356,-4539822494,,
14529092585,3.86096,15946024424,15616125,11567328446,-4378695978,,
14529143588,3.91196,15946075428,15667126,11729875982,-4216199446,,
14529194648,3.96302,15946126488,15718185,11892605181,-4053521307,,
14529245651,4.01403,15946177492,15769186,12055149530,-3891027962,,
14529296197,4.06457,15946228039,15819731,12216240569,-3729987470,,
14529346295,4.11467,15946278138,15869828,12375903796,-3570374342,,
14529396842,4.16522,15946328685,15920374,12536994835,-3409333850,,
14529447891,4.21627,15946379736,15971422,12699692163,-3246687573,,
14529498939,4.26731,15946430784,16022468,12862411801,-3084018983,,
14529549775,4.31815,15946481621,16073303,13024395224,-2922086397,,
14529600787,4.36916,15946532634,16124314,13187000127,-2759532507,,
14529651314,4.41969,15946583162,16174841,13348001928,-2598581234,,
14529701961,4.47034,15946633819,16225496,13509446733,-2437187086,,
14529753039,4.52142,15946684888,16276562,13672195055,-2274489833,,
14529803832,4.57221,15946735682,16327354,13834076490,-2112659192,,
14529854444,4.62282,15946786295,16377966,13995377877,-1951408418,,
14529905345,4.67372,15946837197,16428865,14157600330,-1789236867,,
14529956061,4.72444,15946887914,16479580,14319229986,-1627657928,,
14530006500,4.77488,15946938354,16530018,14479983195,-1466955159,,
14530057508,4.82588,15946989362,16581024,14642540292,-1304449070,,
14530108131,4.87651,15947039996,16631656,14803908607,-1143131389,,
14530158911,4.92729,15947090766,16682425,14965713552,-981377214,,
14530209500,4.97788,15947141356,16733013,15126941636,-820199720,,
14530259612,5.02799,15947191469,16783124,15286649482,-660541987,,
14530310195,5.07857,15947242054,16833705,15447858443,-499383611,,
14530360778,5.12915,15947292637,16884287,15609064218,-338228419,,
14530411375,5.17975,15947343234,16934883,15770320985,-177022249,,
14530461948,5.23032,15947393809,16985455,15931494889,-15898920,,
14530512066,5.28044,15947443927,17035572,15947443553,-374,,
14530562687,5.33106,15947494550,17086191,15947494173,-377,,
14530613250,5.38163,15947545113,17136753,15947544734,-379,,
14530664253,5.43263,15947596118,17187755,15947595737,-381,,
14530714328,5.48270,15947646204,17237840,15947645822,-382,,
14530765005,5.53338,15947696872,17288507,15947696488,-384,,
14530815103,5.58348,15947746970,17338602,15947746584,-386,,
14530865724,5.63410,15947797592,17389222,15947797203,-389,,
14530916763,5.68514,15947848631,17440259,15947848240,-391,,
14530966891,5.73527,15947898761,17490397,15947898378,-383,,
14531017948,5.78632,15947949817,17541442,15947949423,-394,,
14531068769,5.83714,15948000640,17592262,15948000244,-396,,
14531119836,5.88821,15948051708,17643328,15948051309,-399,,
14531170896,5.93927,15948102769,17694387,15948102368,-401,,
14531221891,5.99027,15948153776,17745391,15948153373,-403,,
14531272473,6.04085,15948204348,17795961,15948203942,-406,,
14531323085,6.09146,15948254959,17846572,15948254553,-406,,
14531374126,6.14250,15948306001,17897611,15948305592,-409,,
14531424713,6.19309,15948356590,17948197,15948356179,-411,,
14531475761,6.24414,15948407639,17999244,15948407225,-414,,
14531526313,6.29469,15948458192,18049795,15948457777,-415,,
14531577327,6.34570,15948509207,18100809,15948508790,-417,,
14531627910,6.39629,15948559791,18151389,15948559370,-421,,
14531678468,6.44684,15948610359,18201957,15948609939,-420,,
14531729493,6.49787,15948661374,18252969,15948660951,-423,,
14531780085,6.54846,15948711968,18303561,15948711542,-426,,
14531831136,6.59951,15948763020,18354611,15948762593,-427,,
14531881737,6.65011,15948813622,18405210,15948813192,-430,,
14531932308,6.70068,15948864194,18455780,15948863762,-432,,
14531982914,6.75129,15948914800,18506385,15948914367,-433,,
14532033527,6.80190,15948965414,18556997,15948964979,-435,,
14532084560,6.85294,15949016448,18608029,15949016011,-437,,
14532135155,6.90353,15949067044,18658624,15949066605,-439,,
14532185745,6.95412,15949117635,18709212,15949117193,-442,,
14532236785,7.00516,15949168676,18760251,15949168232,-444,,
14532287812,7.05619,15949219702,18811276,15949219257,-445,,
14532338393,7.10677,15949270284,18861856,15949269837,-447,,
14532388938,7.15731,15949320831,18912400,15949320382,-449,,
14532439993,7.20837,15949371899,18963467,15949371448,-451,,
14532491017,7.25939,15949422911,19014476,15949422457,-454,,
14532542043,7.31042,15949473938,19065501,15949473482,-456,,
14532592090,7.36047,15949523986,19115547,15949523529,-457,,
14532642682,7.41106,15949574579,19166139,15949574120,-459,,
14532693526,7.46190,15949625423,19216980,15949624961,-462,,
14532743577,7.51195,15949675476,19267030,15949675012,-464,,
14532794167,7.56254,15949726066,19317619,15949725600,-466,,
14532845224,7.61360,15949777124,19368674,15949776656,-468,,
14532895392,7.66377,15949827293,19418842,15949826824,-469,,
14532946464,7.71484,15949878366,19469912,15949877894,-472,,
14532997083,7.76546,15949928986,19520530,15949928522,-464,,
14533047684,7.81606,15949979588,19571131,15949979112,-476,,
14533098356,7.86673,15950030261,19621802,15950029783,-478,,
14533148934,7.91731,15950080840,19672378,15950080360,-480,,
14533199465,7.96784,15950131371,19722908,15950130890,-481,,
14533250047,8.01842,15950181954,19773488,15950181470,-484,,
14533301096,8.06947,15950233003,19824536,15950232517,-486,,
14533352146,8.12052,15950284054,19875585,15950283566,-488,,
14533403198,8.17157,15950335108,19926636,15950334618,-490,,
14533454244,8.22262,15950386155,19977682,15950385663,-492,,
14533505271,8.27365,15950437182,20028707,15950436698,-484,,
14533556308,8.32468,15950488219,20079742,15950487723,-496,,
14533606847,8.37522,15950538759,20130280,15950538261,-498,,
14533657466,8.42584,15950589379,20180897,15950588879,-500,,
14533708015,8.47639,15950639929,20231446,15950639427,-502,,
14533758643,8.52702,15950690559,20282072,15950690053,-506,,
14533809212,8.57759,15950741127,20332640,15950740621,-506,,
14533859838,8.62821,15950791755,20383266,15950791247,-508,,
14533910004,8.67838,15950841932,20433441,15950841422,-510,,
14533960624,8.72900,15950892543,20484049,15950892031,-512,,
14534011661,8.78004,15950943581,20535084,15950943066,-515,,
14534062271,8.83065,15950994191,20585693,15950993674,-517,,
14534112820,8.88120,15951044742,20636241,15951044223,-519,,
14534163863,8.93224,15951095795,20687293,15951095275,-520,,
14534214327,8.98270,15951146250,20737746,15951145728,-522,,
14534265375,9.03375,15951197299,20788793,15951196774,-525,,
14534316370,9.08475,15951248295,20839787,15951247768,-527,,
14534366997,9.13537,15951298922,20890412,15951298393,-529,,
14534417545,9.18592,15951349472,20940960,15951348941,-531,,
14534468152,9.23653,15951400079,20991566,15951399547,-532,,
14534519054,9.28743,15951450982,21042465,15951450447,-535,,
14534569604,9.33798,15951501533,21093014,15951500996,-537,,
14534620660,9.38904,15951552590,21144070,15951552051,-539,,
14534671187,9.43956,15951603128,21194606,15951602587,-541,,
14534722198,9.49057,15951654129,21245605,15951653586,-543,,
14534772281,9.54066,15951704224,21295699,15951703680,-544,,
14534822875,9.59125,15951754808,21346289,15951754271,-537,,
14534873935,9.64231,15951805869,21397338,15951805320,-549,,
14534925017,9.69339,15951856952,21448420,15951856401,-551,,
14534976046,9.74442,15951907992,21499458,15951907439,-553,,
14535026847,9.79522,15951958784,21550258,15951958240,-544,,
14535077520,9.84590,15952009456,21600918,15952008899,-557,,
14535128036,9.89641,15952059974,21651433,15952059415,-559,,
14535178907,9.94728,15952110846,21702303,15952110285,-561,,
14535229467,9.99784,15952161406,21752862,15952160843,-563,,
14535280060,10.04844,15952212000,21803454,15952211435,-565,,
14535331109,10.09948,15952263050,21854501,15952262482,-568,,
14535382165,10.15054,15952314107,21905557,15952313538,-569,,
14535432714,10.20109,15952364657,21956104,15952364086,-571,,
14535483762,10.25214,15952415705,22007151,15952415132,-573,,
14535718699,10.48708,15952650647,22242082,15952650064,-583,15952650607,
14535743817,10.51219,15952675765,22267201,15952675184,-581,,
14535794556,10.56293,15952726515,22317949,15952725937,-578,,
14535844646,10.61302,15952776605,22368036,15952776031,-574,,
14535895197,10.66357,15952827148,22418577,15952826576,-572,,
14535945741,10.71412,15952877693,22469120,15952877125,-568,,
14535996130,10.76451,15952928093,22519518,15952927528,-565,,
14536046692,10.81507,15952978645,22570069,15952978085,-560,,
14536097790,10.86617,15953029744,22621165,15953029186,-558,,
14536148304,10.91668,15953080259,22671677,15953079705,-554,,
14536199348,10.96772,15953131304,22722720,15953130753,-551,,
14536249707,11.01808,15953181664,22773078,15953181117,-547,,
14536300163,11.06854,15953232121,22823533,15953231577,-544,,
14536350733,11.11911,15953282691,22874102,15953282152,-539,,
14536401320,11.16970,15953333279,22924688,15953332742,-537,,
14536451908,11.22028,15953383868,22975285,15953383346,-522,,
14536502497,11.27087,15953434458,23025863,15953433928,-530,,
14536553331,11.32171,15953485293,23076696,15953484767,-526,,
14536603898,11.37227,15953535862,23127261,15953535338,-524,,
14536654460,11.42284,15953586423,23177822,15953585904,-519,,
14536705198,11.47357,15953637162,23228558,15953636647,-515,,
14536756223,11.52460,15953688188,23279582,15953687676,-512,,
14536806482,11.57486,15953738448,23329841,15953737940,-508,,
14536856585,11.62496,15953788552,23379953,15953788057,-495,,
14536906881,11.67526,15953838849,23430237,15953838347,-502,,
14536957565,11.72594,15953889533,23480920,15953889035,-498,,
14537008083,11.77646,15953940062,23531446,15953939568,-494,,
14537058620,11.82700,15953990590,23581973,15953990099,-491,,
14537108936,11.87731,15954040907,23632287,15954040420,-487,,
14537159331,11.92771,15954091313,23682691,15954090828,-485,,
14537209691,11.97807,15954141664,23733039,15954141183,-481,,
14537260155,12.02853,15954192128,23783502,15954191651,-477,,
14537310420,12.07880,15954242394,23833776,15954241931,-463,,
14537360540,12.12892,15954292525,23883895,15954292055,-470,,
14537411380,12.17976,15954343366,23934734,15954342900,-466,,
14537462163,12.23054,15954394140,23985505,15954393676,-464,,
14537512493,12.28087,15954444471,24035834,15954444011,-460,,
14537562791,12.33117,15954494769,24086132,15954494313,-456,,
14537613130,12.38151,15954545108,24136469,15954544656,-452,,
14537663473,12.43185,15954595452,24186811,15954595004,-448,,
14537714184,12.48256,15954646164,24237520,15954645719,-445,,
14537764832,12.53321,15954696814,24288167,15954696370,-444,,
14537815622,12.58400,15954747605,24338956,15954747166,-439,,
14537865719,12.63410,15954797701,24389052,15954797266,-435,,
14537916237,12.68461,15954848221,24439570,15954847790,-431,,
14537966810,12.73519,15954898795,24490141,15954898366,-429,,
14538017338,12.78571,15954949323,24540667,15954948898,-425,,
14538067669,12.83605,15954999656,24590997,15954999234,-422,,
14538118450,12.88683,15955050438,24641777,15955050020,-418,,
14538168713,12.93709,15955100700,24692039,15955100286,-414,,
14538219218,12.98759,15955151206,24742543,15955150796,-410,,
14538269796,13.03817,15955201786,24793120,15955201378,-408,,
14538320079,13.08845,15955252070,24843401,15955251666,-404,,
14538370734,13.13911,15955302726,24894055,15955302325,-401,,
14538421070,13.18945,15955353062,24944390,15955352665,-397,,
14538471896,13.24027,15955403889,24995215,15955403496,-393,,
14538522132,13.29051,15955454126,25045449,15955453735,-391,,
14538572483,13.34086,15955504478,25095799,15955504091,-387,,
14538622922,13.39130,15955554917,25146237,15955554534,-383,,
14538673991,13.44237,15955605988,25197306,15955605609,-379,,
14538724280,13.49266,15955656277,25247593,15955655901,-376,,
14538774482,13.54286,15955706480,25297793,15955706108,-372,,
14538824864,13.59324,15955756862,25348174,15955756493,-369,,
14538875082,13.64346,15955807081,25398391,15955806716,-365,,
14538925544,13.69392,15955857544,25448852,15955857182,-362,,
14538976225,13.74460,15955908227,25499532,15955907869,-358,,
14539026604,13.79498,15955958606,25549910,15955958251,-355,,
14539077183,13.84556,15956009186,25600488,15956008835,-351,,
14539127556,13.89593,15956059560,25650860,15956059212,-348,,
14539178313,13.94669,15956110317,25701615,15956109973,-344,,
14539229068,13.99744,15956161073,25752369,15956160732,-341,,
14539279305,14.04768,15956211312,25802605,15956210975,-337,,
14539329554,14.09793,15956261562,25852853,15956261227,-335,,
14539380617,14.14899,15956312625,25903914,15956312295,-330,,
14539431035,14.19941,15956363044,25954331,15956362717,-327,,
14539481741,14.25012,15956413750,26005036,15956413427,-323,,
14539531899,14.30027,15956463910,26055193,15956463590,-320,,
14539582075,14.35045,15956514087,26105368,15956513771,-316,,
14539632448,14.40082,15956564461,26155740,15956564147,-314,,
14539683023,14.45140,15956615036,26206313,15956614727,-309,,
14539733606,14.50198,15956665620,26256896,15956665314,-306,,
14539783873,14.55225,15956715888,26307161,15956715586,-302,,
14539833987,14.60236,15956766003,26357275,15956765704,-299,,
14539884463,14.65284,15956816480,26407748,15956816184,-296,,
14539935340,14.70372,15956867357,26458624,15956867065,-292,,
14539986056,14.75443,15956918074,26509339,15956917786,-288,,
14540036636,14.80501,15956968655,26559919,15956968370,-285,,
14540086975,14.85535,15957018994,26610256,15957018713,-281,,
14540137518,14.90589,15957069539,26660798,15957069260,-279,,
14540187801,14.95618,15957119822,26711079,15957119547,-275,,
14540238769,15.00714,15957170791,26762046,15957170519,-272,,
14540289057,15.05743,15957221079,26812333,15957220812,-267,,
14540339383,15.10776,15957271407,26862659,15957271143,-264,,
14540389603,15.15798,15957321627,26912877,15957321367,-260,,
14540439896,15.20827,15957371922,26963168,15957371664,-258,,
14540490531,15.25891,15957422558,27013802,15957422303,-255,,
14540540633,15.30901,15957472660,27063902,15957472408,-252,,
14540590936,15.35931,15957522963,27114205,15957522717,-246,,
14540641285,15.40966,15957573313,27164553,15957573070,-243,,
14540691625,15.46000,15957623654,27214891,15957623414,-240,,
