Server clock before sync: 36
Synchronizing server_clock...
[1/51] [2/51] [3/51] [4/51] [5/51] [6/51] [7/51] [8/51] [9/51] [10/51] 
[11/51] [12/51] [13/51] [14/51] [15/51] [16/51] [17/51] [18/51] [19/51] [20/51] 
[21/51] [22/51] [23/51] [24/51] [25/51] [26/51] [27/51] [28/51] [29/51] [30/51] 
[31/51] [32/51] [33/51] [34/51] [35/51] [36/51] [37/51] [38/51] [39/51] [40/51] 
[41/51] [42/51] [43/51] [44/51] [45/51] [46/51] [47/51] [48/51] [49/51] [50/51] 
Best Server Sync RTT: 234812, Worst Server Sync RTT: 235910
Average RTT: 235113.360000
Est Server Time: 15942176097, Computed Server Time offset: 15930420113
Server clock after sync: 15942176098

====== SIMULATION METADATA     =====
Server IP: 128.83.139.94, Port: 8020
Server Drift: 20.00 PPM, Client VHC Drift: -20.00 PPM
Relative Drift Weight: -3.50
Local Server Time Error: 117406
Rapport Period: 40000000
Amortization Period: 5000000
Simulation runtime: 1800 seconds
Simulation runtime: 1800000000 usec, 
 Start: 14525244240, End: 16325244240
====== SIMULATION OUTPUT START =====
Current Real Time,Real Time Elapsed (sec),Local Server Time,Hardware Clock Time,Software Clock Time,Error,Remote Est Time,
14525244404,0.00016,15942176264,11755682,11755682,-15930420582,,
14525479384,0.23514,15942411247,11990656,11990656,-15930420591,15942411234,
14525504682,0.26044,15942436546,12015955,92623882,-15849812664,,
14525555306,0.31107,15942487171,12066576,253960454,-15688526717,,
14525605743,0.36150,15942537609,12117013,414704229,-15527833380,,
14525656801,0.41256,15942588668,12168069,577427182,-15365161486,,
14525707897,0.46366,15942639765,12219165,740271245,-15202368520,,
14525758505,0.51426,15942690383,12269781,901591882,-15041098501,,
14525809127,0.56489,15942740995,12320391,1062887022,-14879853973,,
14525859656,0.61542,15942791526,12370919,1223924008,-14718867518,,
14525909752,0.66551,15942841622,12421014,1383580987,-14559260635,,
14525960312,0.71607,15942892184,12471574,1544719960,-14398172224,,
14526010848,0.76661,15942942720,12522108,1705776069,-14237166651,,
14526061004,0.81676,15942992877,12572263,1865624272,-14077368605,,
14526111656,0.86742,15943043530,12622913,2027050083,-13915993447,,
14526162212,0.91797,15943094087,12673469,2188176308,-13754917779,,
14526213235,0.96900,15943145111,12724490,2350787713,-13592357398,,
14526263845,1.01961,15943195721,12775099,2512079666,-13431116055,,
14526314344,1.07010,15943246222,12825597,2673024227,-13270221995,,
14526364915,1.12068,15943296792,12876166,2834188697,-13109108095,,
14526415957,1.17172,15943347836,12927208,2996867031,-12946480805,,
14526466503,1.22226,15943398393,12977763,3157986882,-12785411511,,
14526517583,1.27334,15943449463,13028831,3320744893,-12622704570,,
14526568588,1.32435,15943500470,13079835,3483302118,-12460198352,,
14526619157,1.37492,15943551039,13130402,3644460214,-12299090825,,
14526669681,1.42544,15943601564,13180925,3805484452,-12138117112,,
14526720246,1.47601,15943652129,13231489,3966632986,-11977019143,,
14526771296,1.52706,15943703181,13282539,4129333630,-11814369551,,
14526822063,1.57782,15943753948,13333304,4291125955,-11652627993,,
14526873113,1.62887,15943805000,13384352,4453823412,-11489981588,,
14526923695,1.67945,15943855582,13434933,4615026127,-11328829455,,
14526974302,1.73006,15943906191,13485540,4776314893,-11167591298,,
14527025296,1.78106,15943957185,13536532,4938833873,-11005123312,,
14527075485,1.83125,15944007375,13586721,5098787251,-10845220124,,
14527125920,1.88168,15944057811,13637155,5259524651,-10684533160,,
14527176320,1.93208,15944108212,13687553,5420147316,-10523960896,,
14527226901,1.98266,15944158794,13738132,5581350031,-10362808763,,
14527277827,2.03359,15944209720,13789057,5743649102,-10200560618,,
14527328599,2.08436,15944260493,13839829,5905466924,-10038793569,,
14527379208,2.13497,15944311103,13890437,6066755690,-9877555413,,
14527430232,2.18599,15944362127,13941458,6229398967,-9714963160,,
14527481305,2.23706,15944413202,13992531,6392137856,-9552275346,,
14527532354,2.28811,15944464251,14043578,6554832126,-9389632125,,
14527583404,2.33916,15944515303,14094628,6717529583,-9226985720,,
14527634453,2.39021,15944566352,14145675,6880223853,-9064342499,,
14527685487,2.44125,15944617387,14196708,7042870316,-8901747071,,
14527736515,2.49227,15944668416,14247735,7205497658,-8739170758,,
14527787597,2.54336,15944719499,14298815,7368293914,-8576425585,,
14527838619,2.59438,15944770521,14349836,7530898946,-8413871575,,
14527889692,2.64545,15944821596,14400908,7693672893,-8251148703,,
14527940252,2.69601,15944872166,14451476,7854834175,-8090037991,,
14527990846,2.74661,15944922751,14502059,8016049638,-7928873113,,
14528041505,2.79726,15944973411,14552718,8177532816,-7767440595,,
14528092315,2.84808,15945024222,14603526,8339433502,-7605590720,,
14528142719,2.89848,15945074626,14653929,8500068916,-7445005710,,
14528193765,2.94952,15945125674,14704974,8662753625,-7282372049,,
14528244668,3.00043,15945176576,14755875,8824979393,-7120197183,,
14528295701,3.05146,15945227611,14806908,8987625857,-6957601754,,
14528346198,3.10196,15945278109,14857404,9148560856,-6796717253,,
14528396645,3.15240,15945328567,14907860,9309368373,-6635960194,,
14528447231,3.20299,15945379144,14958434,9470551965,-6474827179,,
14528497467,3.25323,15945429381,15008668,9630651948,-6314777433,,
14528548486,3.30425,15945480400,15059686,9793250606,-6152229794,,
14528599137,3.35490,15945531052,15110336,9954679603,-5990851449,,
14528649709,3.40547,15945581635,15160918,10115885505,-5829696130,,
14528700245,3.45601,15945632162,15211442,10276912930,-5668719232,,
14528751336,3.50710,15945683254,15262531,10439737870,-5505945384,,
14528801602,3.55736,15945733520,15312796,10599933466,-5345800054,,
14528852344,3.60810,15945784264,15363537,10761652488,-5184131776,,
14528903352,3.65911,15945835272,15414544,10924212901,-5021622371,,
14528954395,3.71015,15945886315,15465586,11086888048,-4858998267,,
14529004914,3.76067,15945936836,15516104,11247893164,-4698043672,,
14529055521,3.81128,15945987444,15566710,11409178742,-4536808702,,
14529106107,3.86187,15946038031,15617295,11570397392,-4375640639,,
14529157094,3.91285,15946089019,15668280,11732894063,-4213194956,,
14529207657,3.96342,15946139582,15718842,11894036223,-4052103359,,
14529258163,4.01392,15946190089,15769347,12054999906,-3891190183,,
14529308710,4.06447,15946240637,15819892,12216094260,-3730146377,,
14529359304,4.11506,15946291232,15870486,12377338407,-3568952825,,
14529409855,4.16561,15946341784,15921036,12538445509,-3407896275,,
14529460904,4.21666,15946392834,15972083,12701139779,-3245253055,,
14529511971,4.26773,15946443900,16023147,12863885042,-3082558858,,
14529562757,4.31852,15946494687,16073933,13025741109,-2920753578,,
14529613819,4.36958,15946545750,16124994,13188476811,-2758068939,,
14529664446,4.42021,15946596379,16175620,13349829319,-2596767060,,
14529714992,4.47075,15946646925,16226165,13510917298,-2435729627,,
14529766052,4.52181,15946697987,16277223,13673646626,-2273051361,,
14529816845,4.57261,15946748780,16328015,13835525002,-2111223778,,
14529867460,4.62322,15946799396,16378629,13996832891,-1949966505,,
14529918446,4.67421,15946850383,16429626,14159364619,-1787485764,,
14529969406,4.72517,15946901344,16480574,14321740181,-1625161163,,
14530019983,4.77574,15946951921,16531149,14482926960,-1464024961,,
14530070995,4.82676,15947002934,16582159,14645500121,-1301502813,,
14530121161,4.87692,15947053100,16632324,14805380196,-1141672904,,
14530171488,4.92725,15947103429,16682650,14965776578,-981326851,,
14530222533,4.97829,15947154474,16733694,15128454912,-818699562,,
14530273625,5.02939,15947205568,16784785,15291286227,-655919341,,
14530323755,5.07951,15947255699,16834913,15451048380,-496207319,,
14530374803,5.13056,15947306748,16885960,15613742649,-333564099,,
14530425433,5.18119,15947357378,16936589,15775101531,-172255847,,
14530476291,5.23205,15947408237,16987446,15937218939,-10189298,,
14530527100,5.28286,15947459047,17038254,15947458834,-213,,
14530577684,5.33344,15947509632,17088837,15947509416,-216,,
14530628735,5.38450,15947560683,17139886,15947560465,-218,,
14530679782,5.43554,15947611732,17190932,15947611512,-220,,
14530730386,5.48615,15947662336,17241545,15947662125,-211,,
14530781535,5.53730,15947713485,17292683,15947713262,-223,,
14530832123,5.58788,15947764075,17343269,15947763849,-226,,
14530882735,5.63849,15947814688,17393880,15947814460,-228,,
14530933782,5.68954,15947865736,17444926,15947865506,-230,,
14530984406,5.74017,15947916361,17495550,15947916129,-232,,
14531035406,5.79117,15947967362,17546549,15947967128,-234,,
14531085820,5.84158,15948017776,17596961,15948017540,-236,,
14531136845,5.89260,15948068802,17647985,15948068564,-238,,
14531187402,5.94316,15948119360,17698540,15948119120,-240,,
14531238422,5.99418,15948170381,17749559,15948170139,-242,,
14531289494,6.04525,15948221454,17800631,15948221210,-244,,
14531340103,6.09586,15948272064,17851238,15948271817,-247,,
14531391146,6.14691,15948323107,17902280,15948322859,-248,,
14531441734,6.19749,15948373696,17952866,15948373445,-251,,
14531492780,6.24854,15948424743,18003911,15948424491,-252,,
14531543798,6.29956,15948475761,18054928,15948475507,-254,,
14531594883,6.35064,15948526848,18106012,15948526591,-257,,
14531645928,6.40169,15948577893,18157055,15948577634,-259,,
14531697010,6.45277,15948628975,18208136,15948628715,-260,,
14531748057,6.50382,15948680024,18259183,15948679762,-262,,
14531799105,6.55487,15948731073,18310230,15948730809,-264,,
14531849716,6.60548,15948781685,18360839,15948781419,-266,,
14531900424,6.65618,15948832404,18411556,15948832136,-268,,
14531951327,6.70709,15948883297,18462447,15948883026,-271,,
14532001446,6.75721,15948933417,18512565,15948933145,-272,,
14532052066,6.80783,15948984037,18563184,15948983763,-274,,
14532102613,6.85837,15949034586,18613730,15949034310,-276,,
14532153729,6.90949,15949085703,18664845,15949085424,-279,,
14532204767,6.96053,15949136742,18715882,15949136461,-281,,
14532255815,7.01157,15949187791,18766928,15949187508,-283,,
14532306865,7.06262,15949238842,18817977,15949238557,-285,,
14532357914,7.11367,15949289890,18869025,15949289604,-286,,
14532409006,7.16477,15949340983,18920115,15949340694,-289,,
14532460012,7.21577,15949391991,18971121,15949391700,-291,,
14532511060,7.26682,15949443040,19022168,15949442747,-293,,
14532562070,7.31783,15949494051,19073176,15949493755,-296,,
14532613112,7.36887,15949545094,19124218,15949544797,-297,,
14532663671,7.41943,15949595653,19174774,15949595353,-300,,
14532714056,7.46982,15949646039,19225158,15949645738,-301,,
14532764580,7.52034,15949696563,19275681,15949696260,-303,,
14532814717,7.57048,15949746701,19325817,15949746396,-305,,
14532865303,7.62106,15949797289,19376412,15949796992,-297,,
14532915936,7.67170,15949847922,19427033,15949847612,-310,,
14532966548,7.72231,15949898535,19477644,15949898224,-311,,
14533017124,7.77288,15949949111,19528219,15949948798,-313,,
14533068112,7.82387,15950000101,19579206,15949999786,-315,,
14533118601,7.87436,15950050591,19629695,15950050274,-317,,
14533169288,7.92505,15950101279,19680381,15950100960,-319,,
14533220019,7.97578,15950152010,19731109,15950151688,-322,,
14533270565,8.02632,15950202557,19781654,15950202233,-324,,
14533321618,8.07738,15950253611,19832706,15950253286,-325,,
14533372665,8.12843,15950304659,19883752,15950304332,-327,,
14533423715,8.17948,15950355709,19934801,15950355380,-329,,
14533474764,8.23052,15950406760,19985848,15950406428,-332,,
14533525780,8.28154,15950457777,20036863,15950457443,-334,,
14533576362,8.33212,15950508359,20087444,15950508024,-335,,
14533627411,8.38317,15950559408,20138492,15950559071,-337,,
14533678486,8.43425,15950610485,20189566,15950610146,-339,,
14533729550,8.48531,15950661549,20240628,15950661207,-342,,
14533780133,8.53589,15950712133,20291210,15950711789,-344,,
14533830750,8.58651,15950762752,20341826,15950762406,-346,,
14533880887,8.63665,15950812889,20391962,15950812541,-348,,
14533931073,8.68683,15950863086,20442158,15950862737,-349,,
14533982144,8.73790,15950914148,20493217,15950913796,-352,,
14534032742,8.78850,15950964747,20543813,15950964393,-354,,
14534083767,8.83953,15951015772,20594837,15951015416,-356,,
14534134855,8.89062,15951066862,20645924,15951066504,-358,,
14534185263,8.94102,15951117270,20696331,15951116910,-360,,
14534235848,8.99161,15951167856,20746915,15951167494,-362,,
14534286893,9.04265,15951218901,20797958,15951218537,-364,,
14534337951,9.09371,15951269961,20849015,15951269595,-366,,
14534389013,9.14477,15951321024,20900077,15951320656,-368,,
14534440043,9.19580,15951372055,20951106,15951371685,-370,,
14534490676,9.24644,15951422688,21001736,15951422315,-373,,
14534542191,9.29795,15951474204,21053251,15951473830,-374,,
14534593139,9.34890,15951525153,21104198,15951524777,-376,,
14534644148,9.39991,15951576162,21155204,15951575784,-378,,
14534695211,9.45097,15951627226,21206267,15951626846,-380,,
14534745740,9.50150,15951677757,21256795,15951677374,-383,,
14534796350,9.55211,15951728379,21307414,15951727994,-385,,
14534847395,9.60315,15951779413,21358448,15951779027,-386,,
14534897994,9.65375,15951830013,21409046,15951829625,-388,,
14534949061,9.70482,15951881080,21460111,15951880690,-390,,
14535000066,9.75583,15951932087,21511114,15951931694,-393,,
14535050445,9.80621,15951982466,21561492,15951982071,-395,,
14535101018,9.85678,15952033041,21612065,15952032644,-397,,
14535151936,9.90770,15952083959,21662982,15952083561,-398,,
14535202502,9.95826,15952134526,21713546,15952134125,-401,,
14535253528,10.00929,15952185553,21764572,15952185152,-401,,
14535304587,10.06035,15952236613,21815628,15952236208,-405,,
14535355606,10.11137,15952287633,21866646,15952287226,-407,,
14535406191,10.16195,15952338219,21917230,15952337810,-409,,
14535457210,10.21297,15952389237,21968248,15952388827,-410,,
14535507757,10.26352,15952439786,22018795,15952439374,-412,,
14535558334,10.31409,15952490363,22069369,15952489948,-415,,
14535609377,10.36514,15952541408,22120412,15952540991,-417,,
14535661533,10.41729,15952593565,22172567,15952593146,-419,,
14535712432,10.46819,15952644465,22223465,15952644045,-420,,
14535763003,10.51876,15952695037,22274035,15952694614,-423,,
14535813584,10.56934,15952745618,22324613,15952745193,-425,,
14535863653,10.61941,15952795687,22374681,15952795261,-426,,
14535914664,10.67042,15952846699,22425691,15952846270,-429,,
14535965086,10.72085,15952897123,22476112,15952896692,-431,,
14536015649,10.77141,15952947687,22526674,15952947254,-433,,
14536066232,10.82199,15952998271,22577256,15952997835,-436,,
14536116782,10.87254,15953048821,22627805,15953048384,-437,,
14536167353,10.92311,15953099393,22678374,15953098953,-440,,
14536218177,10.97394,15953150218,22729197,15953149777,-441,,
14536268236,11.02400,15953200277,22779255,15953199834,-443,,
14536318677,11.07444,15953250719,22829694,15953250273,-446,,
14536368824,11.12458,15953300868,22879841,15953300421,-447,,
14536419836,11.17560,15953351880,22930851,15953351431,-449,,
14536470036,11.22580,15953402081,22981051,15953401630,-451,,
14536520540,11.27630,15953452585,23031552,15953452132,-453,,
14536570801,11.32656,15953502848,23081813,15953502393,-455,,
14536621026,11.37679,15953553084,23132047,15953552626,-458,,
14536671651,11.42741,15953603699,23182660,15953603240,-459,,
14536722198,11.47796,15953654246,23233206,15953653785,-461,,
14536777500,11.53326,15953709550,23288507,15953709087,-463,,
14536828529,11.58429,15953760584,23339540,15953760119,-465,,
14536878655,11.63442,15953810706,23389658,15953810238,-468,,
14536929299,11.68506,15953861351,23440302,15953860882,-469,,
14536979816,11.73558,15953911869,23490818,15953911397,-472,,
14537030310,11.78607,15953962364,23541311,15953961891,-473,,
14537080696,11.83646,15954012750,23591696,15954012275,-475,,
14537131129,11.88689,15954063184,23642127,15954062707,-477,,
14537181540,11.93730,15954113597,23692538,15954113117,-480,,
14537233521,11.98928,15954165579,23744517,15954165097,-482,,
14537283728,12.03949,15954215786,23794722,15954215302,-484,,
14537333997,12.08976,15954266055,23844991,15954265570,-485,,
14537384102,12.13986,15954316161,23895094,15954315674,-487,,
14537434609,12.19037,15954366669,23945600,15954366180,-489,,
14537484709,12.24047,15954416771,23995699,15954416279,-492,,
14537535072,12.29083,15954467135,24046061,15954466641,-494,,
14537585465,12.34122,15954517528,24096453,15954517032,-496,,
14537635831,12.39159,15954567894,24146818,15954567397,-497,,
14537686437,12.44220,15954618502,24197423,15954618002,-500,,
14537736797,12.49256,15954668862,24247781,15954668360,-502,,
14537787610,12.54337,15954719676,24298592,15954719172,-504,,
14537838166,12.59393,15954770233,24349148,15954769727,-506,,
14537888957,12.64472,15954821026,24399938,15954820518,-508,,
14537939604,12.69536,15954871673,24450584,15954871163,-510,,
14537990341,12.74610,15954922411,24501319,15954921899,-512,,
14538040954,12.79671,15954973024,24551931,15954972511,-513,,
14538091687,12.84745,15955023758,24602663,15955023243,-515,,
14538141988,12.89775,15955074061,24652963,15955073543,-518,,
14538192308,12.94807,15955124382,24703282,15955123861,-521,,
14538242781,12.99854,15955174855,24753754,15955174333,-522,,
14538293442,13.04920,15955225517,24804413,15955224993,-524,,
14538343606,13.09937,15955275682,24854576,15955275156,-526,,
14538393907,13.14967,15955325983,24904876,15955325455,-528,,
14538444080,13.19984,15955376157,24955048,15955375627,-530,,
14538494544,13.25030,15955426623,25005510,15955426089,-534,,
14538544762,13.30052,15955476841,25055727,15955476306,-535,,
14538595376,13.35114,15955527456,25106341,15955526921,-535,,
14538645958,13.40172,15955578039,25156922,15955577501,-538,,
14538696058,13.45182,15955628140,25207021,15955627600,-540,,
14538746305,13.50206,15955678387,25257265,15955677845,-542,,
14538796674,13.55243,15955728758,25307633,15955728213,-545,,
14538847400,13.60316,15955779484,25358358,15955778938,-546,,
14538897766,13.65353,15955829851,25408724,15955829303,-548,,
14538948051,13.70381,15955880137,25459008,15955879587,-550,,
14538998419,13.75418,15955930506,25509374,15955929954,-552,,
14539049130,13.80489,15955981218,25560084,15955980663,-555,,
14539099373,13.85513,15956031461,25610325,15956030904,-557,,
14539150101,13.90586,15956082191,25661053,15956081633,-558,,
14539200837,13.95660,15956132927,25711788,15956132367,-560,,
14539251077,14.00684,15956183168,25762027,15956182606,-562,,
14539301331,14.05709,15956233423,25812279,15956232858,-565,,
14539352090,14.10785,15956284183,25863036,15956283616,-567,,
14539402842,14.15860,15956334936,25913788,15956334367,-569,,
14539453540,14.20930,15956385634,25964485,15956385064,-570,,
14539503804,14.25956,15956435899,26014748,15956435327,-572,,
14539553930,14.30969,15956486026,26064871,15956485451,-575,,
14539604248,14.36001,15956536345,26115189,15956535768,-577,,
14539654968,14.41073,15956587066,26165908,15956586487,-579,,
14539705247,14.46101,15956637358,26216197,15956636777,-581,,
14539755350,14.51111,15956687449,26266288,15956686867,-582,,
14539805901,14.56166,15956738001,26316837,15956737417,-584,,
14539856217,14.61198,15956788318,26367152,15956787731,-587,,
14539906498,14.66226,15956838599,26417431,15956838010,-589,,
14539957414,14.71317,15956889523,26468358,15956888938,-585,,
14540007736,14.76350,15956939840,26518668,15956939247,-593,,
14540058357,14.81412,15956990460,26569287,15956989867,-593,,
14540108971,14.86473,15957041076,26619899,15957040479,-597,,
14540159086,14.91485,15957091203,26670025,15957090604,-599,,
14540209775,14.96553,15957141882,26720702,15957141281,-601,,
14540260373,15.01613,15957192481,26771299,15957191878,-603,,
14540310723,15.06648,15957242832,26821648,15957242228,-604,,
14540361024,15.11678,15957293133,26871947,15957292526,-607,,
14540411167,15.16693,15957343287,26922099,15957342679,-608,,
14540461931,15.21769,15957394041,26972851,15957393430,-611,,
14540512085,15.26784,15957444197,27023004,15957443596,-601,,
14540562203,15.31796,15957494316,27073133,15957493712,-604,,
