Server clock before sync: 42
Synchronizing server_clock...
[1/51] [2/51] [3/51] [4/51] [5/51] [6/51] [7/51] [8/51] [9/51] [10/51] 
[11/51] [12/51] [13/51] [14/51] [15/51] [16/51] [17/51] [18/51] [19/51] [20/51] 
[21/51] [22/51] [23/51] [24/51] [25/51] [26/51] [27/51] [28/51] [29/51] [30/51] 
[31/51] [32/51] [33/51] [34/51] [35/51] [36/51] [37/51] [38/51] [39/51] [40/51] 
[41/51] [42/51] [43/51] [44/51] [45/51] [46/51] [47/51] [48/51] [49/51] [50/51] 
Best Server Sync RTT: 66026, Worst Server Sync RTT: 79419
Average RTT: 66756.340000
Est Server Time: 1602825042, Computed Server Time offset: 1599486748
Server clock after sync: 1602825044

====== SIMULATION METADATA     =====
Server IP: 128.83.139.94, Port: 8030
Server Drift: 30.00 PPM, Client VHC Drift: -30.00 PPM
Relative Drift Weight: -3.50
Local Server Time Error: 33013
Rapport Period: 10000000
Amortization Period: 5000000
Simulation runtime: 1800 seconds
Simulation runtime: 1800000000 usec, 
 Start: 191048566, End: 1991048566
====== SIMULATION OUTPUT START =====
Current Real Time,Real Time Elapsed (sec),Local Server Time,Hardware Clock Time,Software Clock Time,Error,Remote Est Time,
191048717,0.00015,1602825195,3338248,3338248,-1599486947,,
191114848,0.06628,1602891328,3404376,3404377,-1599486951,1602891204,
191140089,0.09152,1602916571,3429617,11504787,-1591411784,,
191191135,0.14257,1602967618,3480661,27884672,-1575082946,,
191242169,0.19360,1603018654,3531694,44260706,-1558757948,,
191292733,0.24417,1603069220,3582257,60486240,-1542582980,,
191342825,0.29426,1603119312,3632347,76559989,-1526559323,,
191393435,0.34487,1603169924,3682956,92800284,-1510369640,,
191444473,0.39591,1603220963,3733992,109177602,-1494043361,,
191495526,0.44696,1603272017,3785043,125559733,-1477712284,,
191546570,0.49800,1603323063,3836084,141938976,-1461384087,,
191597127,0.54856,1603373622,3886642,158162585,-1445211037,,
191648184,0.59962,1603424678,3937695,174545679,-1428878999,,
191698728,0.65016,1603475225,3988238,190764473,-1412710752,,
191749263,0.70070,1603525761,4038772,206981022,-1396544739,,
191799809,0.75124,1603576309,4089317,223200458,-1380375851,,
191850879,0.80231,1603627380,4140384,239587724,-1364039656,,
191901412,0.85285,1603677917,4190918,255804272,-1347873645,,
191952456,0.90389,1603728959,4241958,272182553,-1331546406,,
192003013,0.95445,1603779518,4292513,288405840,-1315373678,,
192053553,1.00499,1603830059,4343052,304623672,-1299206387,,
192104124,1.05556,1603880630,4393620,320850489,-1283030141,,
192154763,1.10620,1603931271,4444257,337099769,-1266831502,,
192204866,1.15630,1603981378,4494360,353178011,-1250803367,,
192255897,1.20733,1604032409,4545390,369553083,-1234479326,,
192306448,1.25788,1604082961,4595937,385773803,-1218309158,,
192357021,1.30845,1604133535,4646509,402001903,-1202131632,,
192408075,1.35951,1604184592,4697563,418385318,-1185799274,,
192458799,1.41023,1604235316,4748284,434661554,-1169573762,,
192509851,1.46128,1604286368,4799333,451042722,-1153243646,,
192560404,1.51184,1604336924,4849886,467265047,-1137071877,,
192611435,1.56287,1604387955,4900914,483639798,-1120748157,,
192662480,1.61391,1604439002,4951957,500019683,-1104419319,,
192713051,1.66448,1604489587,5002539,516250992,-1088238595,,
192764084,1.71552,1604540608,5053558,532623176,-1071917432,,
192814637,1.76607,1604591162,5104109,548844538,-1055746624,,
192865176,1.81661,1604641704,5154647,565062049,-1039579655,,
192915233,1.86667,1604691762,5204702,581124887,-1023566875,,
192965773,1.91721,1604742302,5255240,597342078,-1007400224,,
193016345,1.96778,1604792877,5305811,613570178,-991222699,,
193067392,2.01883,1604843924,5356856,629950384,-974893540,,
193118007,2.06944,1604894551,5407480,646195493,-958699058,,
193168989,2.12042,1604945525,5458449,662551631,-942393894,,
193219514,2.17095,1604996061,5508983,678767859,-926228202,,
193270600,2.22203,1605047138,5560057,695157371,-909889767,,
193321394,2.27283,1605097934,5610849,711456390,-893641544,,
193371978,2.32341,1605148519,5661432,727688020,-877460499,,
193422541,2.37398,1605199083,5711993,743912912,-861286171,,
193473172,2.42461,1605249716,5762622,760159946,-845089770,,
193523784,2.47522,1605300328,5813231,776400241,-828900087,,
193574375,2.52581,1605350920,5863822,792634759,-812716161,,
193625398,2.57683,1605401946,5914844,809007264,-796394682,,
193676436,2.62787,1605452984,5965879,825384261,-780068723,,
193727018,2.67845,1605503568,6016460,841615570,-763887998,,
193778066,2.72950,1605554617,6067506,857996097,-747558520,,
193829095,2.78053,1605605648,6118544,874374378,-731231270,,
193880161,2.83160,1605656715,6169598,890757472,-714899243,,
193931214,2.88265,1605707770,6220650,907139604,-698568166,,
193982277,2.93371,1605758834,6271710,923524944,-682233890,,
194033314,2.98475,1605809872,6322745,939901620,-665908252,,
194083424,3.03486,1605859983,6372854,955981466,-649878517,,
194133950,3.08538,1605910511,6423379,972194806,-633715705,,
194184049,3.13548,1605960612,6473475,988270480,-617690132,,
194234144,3.18558,1606010720,6523580,1004349363,-601661357,,
194285243,3.23668,1606061807,6574666,1020742726,-585319081,,
194335838,3.28727,1606112405,6625259,1036977887,-569134518,,
194386086,3.33752,1606162666,6675517,1053105547,-553057119,,
194436596,3.38803,1606213165,6726014,1069309901,-536903264,,
194487224,3.43866,1606263794,6776640,1085555651,-520708143,,
194538236,3.48967,1606314808,6827651,1101924626,-504390182,,
194589252,3.54069,1606365825,6878665,1118294884,-488070941,,
194639872,3.59131,1606416447,6929283,1134538387,-471878060,,
194690880,3.64231,1606467456,6980290,1150906079,-455561377,,
194741954,3.69339,1606518531,7031362,1167294949,-439223582,,
194793003,3.74444,1606569581,7082409,1183675797,-422893784,,
194844016,3.79545,1606620595,7133419,1200045092,-406575503,,
194894583,3.84602,1606671164,7183985,1216271588,-390399576,,
194945667,3.89710,1606722250,7235069,1232664309,-374057941,,
194996207,3.94764,1606772790,7285606,1248881500,-357891290,,
195047237,3.99867,1606823822,7336635,1265256250,-341567572,,
195097840,4.04927,1606874427,7387236,1281494299,-325380128,,
195148861,4.10030,1606925450,7438256,1297866482,-309058968,,
195199875,4.15131,1606976464,7489268,1314235778,-292740686,,
195250507,4.20194,1607027097,7539897,1330482491,-276544606,,
195301518,4.25295,1607078110,7590908,1346851786,-260226324,,
195352116,4.30355,1607128710,7641504,1363087909,-244040801,,
195402724,4.35416,1607179319,7692110,1379327241,-227852078,,
195453017,4.40445,1607229624,7742413,1395469342,-211760282,,
195503353,4.45479,1607279951,7792735,1411617860,-195662091,,
195553827,4.50526,1607330426,7843207,1427813871,-179516555,,
195604437,4.55587,1607381037,7893816,1444054166,-163326871,,
195655289,4.60672,1607431891,7944666,1460372117,-147059774,,
195705867,4.65730,1607482470,7995242,1476601823,-130880647,,
195756906,4.70834,1607533509,8046279,1492979141,-114554368,,
195807456,4.75889,1607584061,8096828,1509200182,-98383879,,
195857526,4.80896,1607634132,8146896,1525266871,-82367261,,
195908577,4.86001,1607685185,8197946,1541648681,-66036504,,
195959136,4.91057,1607735758,8248516,1557876461,-49859297,,
196010196,4.96163,1607786807,8299566,1574258272,-33528535,,
196061172,5.01261,1607837783,8350535,1590614090,-17223693,,
196111776,5.06321,1607888390,8401138,1606852780,-1035610,,
196161905,5.11334,1607938530,8451276,1607938106,-424,,
196212458,5.16389,1607989073,8501816,1607988645,-428,,
196263033,5.21447,1608039650,8552389,1608039218,-432,,
196314082,5.26552,1608090701,8603438,1608090267,-434,,
196364210,5.31564,1608140829,8653563,1608140392,-437,,
196414807,5.36624,1608191429,8704159,1608190988,-441,,
196465151,5.41659,1608241774,8754501,1608241330,-444,,
196515954,5.46739,1608292590,8805315,1608292145,-445,,
196566140,5.51757,1608342766,8855487,1608342316,-450,,
196616697,5.56813,1608393324,8906043,1608392872,-452,,
196666789,5.61822,1608443417,8956132,1608442962,-455,,
196717359,5.66879,1608493989,9006701,1608493530,-459,,
196767961,5.71939,1608544592,9057301,1608544131,-461,,
196818970,5.77040,1608595602,9108309,1608595138,-464,,
196869539,5.82097,1608646172,9158875,1608645704,-468,,
196920618,5.87205,1608697253,9209952,1608696782,-471,,
196971665,5.92310,1608748301,9260998,1608747827,-474,,
197022714,5.97415,1608799352,9312046,1608798875,-477,,
197073763,6.02520,1608850402,9363092,1608849922,-480,,
197124811,6.07625,1608901451,9414139,1608900969,-482,,
197175859,6.12729,1608952501,9465186,1608952015,-486,,
197226833,6.17827,1609003476,9516158,1609002987,-489,,
197277364,6.22880,1609054009,9566687,1609053517,-492,,
197327809,6.27924,1609104455,9617130,1609103960,-495,,
197378290,6.32972,1609154937,9667610,1609154439,-498,,
197428860,6.38029,1609205508,9718177,1609205006,-502,,
197479452,6.43089,1609256102,9768769,1609255598,-504,,
197530196,6.48163,1609306846,9819510,1609306339,-507,,
197580814,6.53225,1609357467,9870127,1609356956,-511,,
197631383,6.58282,1609408036,9920694,1609407523,-513,,
197681502,6.63294,1609458157,9970812,1609457641,-516,,
197732539,6.68397,1609509195,10021845,1609508675,-520,,
197782638,6.73407,1609559295,10071944,1609558773,-522,,
197833222,6.78466,1609609881,10122527,1609609356,-525,,
197883800,6.83523,1609660460,10173102,1609659931,-529,,
197934439,6.88587,1609711100,10223739,1609710568,-532,,
197985139,6.93657,1609761801,10274438,1609761267,-534,,
198036191,6.98763,1609812855,10325488,1609812318,-537,,
198086847,7.03828,1609863512,10376142,1609862971,-541,,
198136981,7.08842,1609913647,10426275,1609913104,-543,,
198187832,7.13927,1609964501,10477125,1609963954,-547,,
198238348,7.18978,1610015017,10527638,1610014467,-550,,
198288986,7.24042,1610065657,10578276,1610065105,-552,,
198340001,7.29143,1610116674,10629289,1610116118,-556,,
198390480,7.34191,1610167154,10679775,1610166605,-549,,
198441552,7.39299,1610218227,10730837,1610217666,-561,,
198492130,7.44356,1610268806,10781423,1610268253,-553,,
198542774,7.49421,1610319463,10832065,1610318895,-568,,
198593820,7.54525,1610370499,10883098,1610369939,-560,,
198644169,7.59560,1610420849,10933446,1610420275,-574,,
198694799,7.64623,1610471481,10984074,1610470903,-578,,
198745875,7.69731,1610522557,11035148,1610521978,-579,,
198796630,7.74806,1610573315,11085902,1610572732,-583,,
198847201,7.79863,1610623886,11136471,1610623300,-586,,
198897809,7.84924,1610674496,11187077,1610673907,-589,,
198948602,7.90004,1610725291,11237869,1610724699,-592,,
198999149,7.95058,1610775839,11288414,1610775244,-595,,
199050165,8.00160,1610826857,11339428,1610826268,-589,,
199100715,8.05215,1610877408,11389976,1610876806,-602,,
199151785,8.10322,1610928479,11441045,1610927875,-604,,
199202312,8.15375,1610979018,11491581,1610978410,-608,,
199252965,8.20440,1611029662,11542222,1611029051,-611,,
199303480,8.25491,1611080178,11592736,1611079565,-613,,
199353957,8.30539,1611130657,11643210,1611130039,-618,,
199404729,8.35616,1611181430,11693981,1611180810,-620,,
199455415,8.40685,1611232116,11744665,1611231494,-622,,
199506225,8.45766,1611282929,11795473,1611282303,-626,,
199557305,8.50874,1611334009,11846551,1611333380,-629,,
199607612,8.55905,1611384318,11896856,1611383685,-633,,
199658472,8.60991,1611435180,11947716,1611434545,-635,,
199708789,8.66022,1611485497,11998030,1611484859,-638,,
199759316,8.71075,1611536026,12048555,1611535384,-642,,
199809954,8.76139,1611586666,12099192,1611586022,-644,,
199860536,8.81197,1611637249,12149772,1611636602,-647,,
199911454,8.86289,1611688168,12200688,1611687518,-650,,
199962059,8.91349,1611738786,12251304,1611738134,-652,,
200012666,8.96410,1611789382,12301897,1611788726,-656,,
200063668,9.01510,1611840386,12352898,1611839727,-659,,
200114081,9.06551,1611890801,12403308,1611890138,-663,,
200164612,9.11605,1611941333,12453838,1611940668,-665,,
200215166,9.16660,1611991887,12504390,1611991219,-668,,
200265274,9.21671,1612041997,12554496,1612041325,-672,,
200316292,9.26773,1612093016,12605513,1612092342,-674,,
200366806,9.31824,1612143532,12656025,1612142854,-678,,
200417062,9.36850,1612193799,12706289,1612193118,-681,,
200467647,9.41908,1612244376,12756864,1612243693,-683,,
200518683,9.47012,1612295413,12807897,1612294727,-686,,
200568746,9.52018,1612345477,12857958,1612344788,-689,,
200619323,9.57076,1612396055,12908533,1612395363,-692,,
200670348,9.62178,1612447082,12959558,1612446387,-695,,
200720894,9.67233,1612497630,13010102,1612496931,-699,,
200770996,9.72243,1612547733,13060202,1612547031,-702,,
200821623,9.77306,1612598360,13110827,1612597656,-704,,
200872546,9.82398,1612649285,13161748,1612648577,-708,,
200922694,9.87413,1612699435,13211895,1612698724,-711,,
200973725,9.92516,1612750467,13262924,1612749754,-713,,
201024200,9.97563,1612800944,13313397,1612800226,-718,,
201074753,10.02619,1612851497,13363948,1612850777,-720,,
201125311,10.07675,1612902056,13414505,1612901334,-722,,
201192667,10.14410,1612969414,13481858,1612968687,-727,1612968726,
201217885,10.16932,1612994633,13507075,1612993903,-730,,
201269207,10.22064,1613045957,13558396,1613045225,-732,,
201319972,10.27141,1613096724,13609160,1613095989,-735,,
201370235,10.32167,1613146988,13659420,1613146250,-738,,
201420343,10.37178,1613197097,13709527,1613196357,-740,,
201470931,10.42236,1613247687,13760114,1613246944,-743,,
201521513,10.47295,1613298269,13810693,1613297523,-746,,
201571999,10.52343,1613348757,13861179,1613348010,-747,,
201623034,10.57447,1613399794,13912211,1613399042,-752,,
201673588,10.62502,1613450349,13962764,1613449595,-754,,
201723742,10.67518,1613500504,14012916,1613499749,-755,,
201774517,10.72595,1613551281,14063690,1613550522,-759,,
201824620,10.77605,1613601385,14113791,1613600624,-761,,
201875220,10.82665,1613651986,14164389,1613651222,-764,,
201925801,10.87724,1613702568,14214968,1613701802,-766,,
201976862,10.92830,1613753632,14266028,1613752863,-769,,
202027910,10.97934,1613804680,14317074,1613803908,-772,,
202078933,11.03037,1613855704,14368095,1613854930,-774,,
202129495,11.08093,1613906267,14418654,1613905490,-777,,
202179617,11.13105,1613956391,14468776,1613955612,-779,,
202229890,11.18132,1614006666,14519047,1614005883,-783,,
202280951,11.23239,1614057740,14570118,1614056955,-785,,
202331970,11.28340,1614108747,14621122,1614107960,-787,,
202382266,11.33370,1614159046,14671417,1614158254,-792,,
202439429,11.39086,1614216209,14728579,1614215418,-791,,
202490364,11.44180,1614267147,14779512,1614266351,-796,,
202541043,11.49248,1614317826,14830189,1614317028,-798,,
202591601,11.54303,1614368386,14880745,1614367585,-801,,
202642238,11.59367,1614419025,14931381,1614418221,-804,,
202692849,11.64428,1614469636,14981990,1614468830,-806,,
202743626,11.69506,1614520415,15032766,1614519606,-809,,
202794199,11.74563,1614570990,15083337,1614570178,-812,,
202844777,11.79621,1614621569,15133913,1614620754,-815,,
202895334,11.84677,1614672126,15184468,1614671310,-816,,
202946376,11.89781,1614723171,15235509,1614722352,-819,,
202996967,11.94840,1614773762,15286098,1614772940,-822,,
203047625,11.99906,1614824422,15336755,1614823598,-824,,
203098182,12.04962,1614874981,15387310,1614874154,-827,,
203148810,12.10024,1614925609,15437936,1614924780,-829,,
203199401,12.15084,1614976202,15488526,1614975370,-832,,
203249988,12.20142,1615026791,15539110,1615025955,-836,,
203300247,12.25168,1615077051,15589368,1615076214,-837,,
203350671,12.30210,1615127476,15639790,1615126636,-840,,
203401298,12.35273,1615178104,15690425,1615177271,-833,,
203451900,12.40333,1615228707,15741016,1615227862,-845,,
203502844,12.45428,1615279654,15791959,1615278805,-849,,
203553458,12.50489,1615330269,15842571,1615329418,-851,,
203604474,12.55591,1615381286,15893585,1615380433,-853,,
203655063,12.60650,1615431877,15944173,1615431021,-856,,
203706082,12.65752,1615482896,15995189,1615482037,-859,,
203756630,12.70806,1615533445,16045735,1615532585,-860,,
203807690,12.75912,1615584508,16096795,1615583644,-864,,
203858227,12.80966,1615635046,16147329,1615634179,-867,,
203908763,12.86020,1615685582,16197863,1615684713,-869,,
203959329,12.91076,1615736151,16248428,1615735279,-872,,
204010366,12.96180,1615787189,16299463,1615786315,-874,,
204060926,13.01236,1615837750,16350021,1615836873,-877,,
204111981,13.06342,1615888819,16401088,1615887940,-879,,
204163063,13.11450,1615939889,16452155,1615939008,-881,,
204214063,13.16550,1615990891,16503153,1615990006,-885,,
204264647,13.21608,1616041476,16553735,1616040588,-888,,
204315724,13.26716,1616092555,16604812,1616091665,-890,,
204366513,13.31795,1616143345,16655599,1616142453,-892,,
204417146,13.36858,1616193980,16706229,1616193083,-897,,
204467674,13.41911,1616244509,16756756,1616243610,-899,,
204517989,13.46942,1616294825,16807070,1616293925,-900,,
204568144,13.51958,1616344982,16857223,1616344078,-904,,
204619204,13.57064,1616396043,16908281,1616395138,-905,,
204669703,13.62114,1616446543,16958779,1616445635,-908,,
204720288,13.67172,1616497130,17009362,1616496219,-911,,
204770846,13.72228,1616547701,17059930,1616546787,-914,,
204821906,13.77334,1616598750,17110977,1616597835,-915,,
204872907,13.82434,1616649753,17161976,1616648834,-919,,
204923533,13.87497,1616700380,17212599,1616699458,-922,,
204973918,13.92535,1616750766,17262983,1616749843,-923,,
205024421,13.97585,1616801271,17313484,1616800344,-927,,
205075457,14.02689,1616852307,17364518,1616851377,-930,,
205126024,14.07746,1616902877,17415085,1616901945,-932,,
205177065,14.12850,1616953919,17466123,1616952984,-935,,
205227643,14.17908,1617004498,17516699,1617003561,-937,,
205278699,14.23013,1617055556,17567753,1617054615,-941,,
205329698,14.28113,1617106556,17618751,1617105613,-943,,
205380230,14.33166,1617157089,17669292,1617156154,-935,,
205431246,14.38268,1617208106,17720295,1617207157,-949,,
205481812,14.43325,1617258685,17770872,1617257735,-950,,
205532410,14.48384,1617309273,17821467,1617308331,-942,,
205582992,14.53443,1617359857,17872036,1617358900,-957,,
205633355,14.58479,1617410221,17922398,1617409263,-958,,
205683880,14.63531,1617460747,17972921,1617459785,-962,,
205734420,14.68585,1617511289,18023460,1617510326,-963,,
205784498,14.73593,1617561368,18073536,1617560402,-966,,
205835067,14.78650,1617611937,18124103,1617610969,-968,,
205885271,14.83671,1617662143,18174305,1617661171,-972,,
205936253,14.88769,1617713127,18225285,1617712152,-975,,
205986892,14.93833,1617763767,18275924,1617762791,-976,,
206037916,14.98935,1617814793,18326946,1617813813,-980,,
206088474,15.03991,1617865352,18377502,1617864370,-982,,
206139501,15.09093,1617916379,18428527,1617915395,-984,,
206190609,15.14204,1617967490,18479633,1617966503,-987,,
206241115,15.19255,1618018007,18530148,1618017017,-990,,
206292184,15.24362,1618069067,18581205,1618068075,-992,,
206343196,15.29463,1618120080,18632215,1618119084,-996,,
206394235,15.34567,1618171121,18683252,1618170121,-1000,,
206444297,15.39573,1618221184,18733312,1618220181,-1003,,
206494855,15.44629,1618271744,18783870,1618270739,-1005,,
206545905,15.49734,1618322794,18834917,1618321786,-1008,,
206596932,15.54837,1618373822,18885942,1618372811,-1011,,
206647994,15.59943,1618424887,18937003,1618423873,-1014,,
206699016,15.65045,1618475910,18988023,1618474893,-1017,,
206749625,15.70106,1618526521,19038631,1618525500,-1021,,
206800617,15.75205,1618577513,19089620,1618576489,-1024,,
206850662,15.80210,1618627559,19139664,1618626533,-1026,,
206900737,15.85217,1618677637,19189738,1618676607,-1030,,
206951233,15.90267,1618728133,19240231,1618727101,-1032,,
207001880,15.95331,1618778781,19290877,1618777747,-1034,,
207052572,16.00401,1618829476,19341568,1618828438,-1038,,
207103156,16.05459,1618880060,19392149,1618879019,-1041,,
207153686,16.10512,1618930592,19442678,1618929547,-1045,,
207204255,16.15569,1618981164,19493246,1618980116,-1048,,
207254847,16.20628,1619031756,19543835,1619030705,-1051,,
207305909,16.25734,1619082819,19594897,1619081766,-1053,,
207356518,16.30795,1619133430,19645503,1619132373,-1057,,
207407120,16.35855,1619184032,19696103,1619182972,-1060,,
207457225,16.40866,1619234139,19746207,1619233076,-1063,,
