Server clock before sync: 35
Synchronizing server_clock...
[1/51] [2/51] [3/51] [4/51] [5/51] [6/51] [7/51] [8/51] [9/51] [10/51] 
[11/51] [12/51] [13/51] [14/51] [15/51] [16/51] [17/51] [18/51] [19/51] [20/51] 
[21/51] [22/51] [23/51] [24/51] [25/51] [26/51] [27/51] [28/51] [29/51] [30/51] 
[31/51] [32/51] [33/51] [34/51] [35/51] [36/51] [37/51] [38/51] [39/51] [40/51] 
[41/51] [42/51] [43/51] [44/51] [45/51] [46/51] [47/51] [48/51] [49/51] [50/51] 
Best Server Sync RTT: 234745, Worst Server Sync RTT: 256304
Average RTT: 235463.720000
Est Server Time: 15956256788, Computed Server Time offset: 15944483170
Server clock after sync: 15956256789

====== SIMULATION METADATA     =====
Server IP: 128.83.139.94, Port: 8010
Server Drift: 10.00 PPM, Client VHC Drift: -10.00 PPM
Relative Drift Weight: -3.50
Local Server Time Error: 117372
Rapport Period: 20000000
Amortization Period: 5000000
Simulation runtime: 1800 seconds
Simulation runtime: 1800000000 usec, 
 Start: 14525212165, End: 16325212165
====== SIMULATION OUTPUT START =====
Current Real Time,Real Time Elapsed (sec),Local Server Time,Hardware Clock Time,Software Clock Time,Error,Remote Est Time,
14525212278,0.00011,15956256903,11773497,11773498,-15944483405,,
14525447255,0.23509,15956491881,12008471,12008472,-15944483409,15956491759,
14525472700,0.26054,15956517325,12033916,93178579,-15863338746,,
14525523212,0.31105,15956567839,12084427,254306639,-15702261200,,
14525573673,0.36151,15956618300,12134888,415268824,-15541349476,,
14525624274,0.41211,15956668901,12185487,576677595,-15379991306,,
14525675329,0.46316,15956719957,12236542,739537769,-15217182188,,
14525725475,0.51331,15956770115,12286699,899533416,-15057236699,,
14525776045,0.56388,15956820673,12337256,1060805021,-14896015652,,
14525826630,0.61447,15956871259,12387841,1222165944,-14734705315,,
14525877254,0.66509,15956921883,12438464,1383648082,-14573273801,,
14525930050,0.71788,15956974679,12491260,1552058676,-14404916003,,
14525980833,0.76867,15957025462,12542042,1714051198,-14242974264,,
14526030914,0.81875,15957075544,12592122,1873801223,-14083274321,,
14526081030,0.86886,15957125660,12642237,2033662894,-13923462766,,
14526131671,0.91951,15957176302,12692878,2195202450,-13761973852,,
14526182773,0.97061,15957227403,12743978,2358206170,-13599021233,,
14526233801,1.02164,15957278431,12795006,2520980216,-13436298215,,
14526284849,1.07268,15957329480,12846054,2683814871,-13273514609,,
14526335918,1.12375,15957380550,12897122,2846716514,-13110664036,,
14526386447,1.17428,15957431078,12947650,3007898802,-12949532276,,
14526436983,1.22482,15957481615,12998187,3169103419,-12788378196,,
14526488028,1.27586,15957532660,13049230,3331925314,-12625607346,,
14526539065,1.32690,15957583698,13100266,3494728070,-12462855628,,
14526590121,1.37796,15957634753,13151320,3657585054,-12300049699,,
14526641165,1.42900,15957685799,13202365,3820413329,-12137272470,,
14526692230,1.48006,15957736864,13253429,3983302212,-11974434652,,
14526743286,1.53112,15957787919,13304484,4146162386,-11811625533,,
14526793828,1.58166,15957838463,13355026,4307386143,-11650452320,,
14526844060,1.63190,15957888695,13405258,4467621032,-11490267663,,
14526894138,1.68197,15957938773,13455334,4627358297,-11330580476,,
14526944499,1.73233,15957989135,13505696,4788004682,-11169984453,,
14526995289,1.78312,15958039925,13556485,4950016344,-11008023581,,
14527045820,1.83366,15958090456,13607018,5111214581,-10846875875,,
14527096065,1.88390,15958140702,13657259,5271478179,-10686662523,,
14527146479,1.93431,15958191116,13707672,5432290440,-10525900676,,
14527196555,1.98439,15958241192,13757747,5592024515,-10366216677,,
14527246933,2.03477,15958291571,13808125,5752725129,-10205566442,,
14527297545,2.08538,15958342182,13858736,5914168988,-10044173194,,
14527348094,2.13593,15958392732,13909284,6075411885,-9882980847,,
14527398688,2.18652,15958443327,13959878,6236801516,-9721641811,,
14527449270,2.23711,15958493909,14010460,6398149679,-9560344230,,
14527500323,2.28816,15958544961,14061511,6561000283,-9397544678,,
14527551372,2.33921,15958596012,14112559,6723838128,-9234757884,,
14527602397,2.39023,15958647049,14163597,6886644073,-9072002976,,
14527653457,2.44129,15958698098,14214645,7049481918,-8909216180,,
14527704495,2.49233,15958749148,14265693,7212319763,-8746429385,,
14527755554,2.54339,15958800195,14316740,7375154417,-8583645778,,
14527806568,2.59440,15958851209,14367752,7537877426,-8420973783,,
14527857142,2.64498,15958901784,14418325,7699200069,-8259701715,,
14527908179,2.69601,15958952821,14469362,7862002825,-8096949996,,
14527958794,2.74663,15959003436,14519976,8023453065,-7935550371,,
14528009868,2.79770,15959054510,14571049,8186370657,-7772683853,,
14528060438,2.84827,15959105091,14621629,8347718820,-7611386271,,
14528111073,2.89891,15959155715,14672253,8509200958,-7449954757,,
14528161719,2.94955,15959206362,14722898,8670753274,-7288453088,,
14528212618,3.00045,15959257261,14773797,8833115824,-7126141437,,
14528263691,3.05153,15959308334,14824869,8996030226,-6963278108,,
14528314631,3.10247,15959359276,14875808,9158523562,-6800835714,,
14528365074,3.15291,15959409719,14926251,9319428329,-6639981390,,
14528415687,3.20352,15959460331,14976863,9480878569,-6478581762,,
14528466364,3.25420,15959511009,15027539,9642526582,-6316984427,,
14528516987,3.30482,15959561633,15078161,9804008721,-6155552912,,
14528568000,3.35583,15959612646,15129174,9966734919,-5992877727,,
14528618620,3.40645,15959663267,15179793,10128204298,-5831458969,,
14528669213,3.45705,15959713859,15230385,10289587549,-5670126310,,
14528719322,3.50716,15959763969,15280494,10449430081,-5510333888,,
14528770024,3.55786,15959814672,15331195,10611161032,-5348653640,,
14528820916,3.60875,15959865564,15382087,10773498062,-5186367502,,
14528871821,3.65966,15959916469,15432991,10935876562,-5024039907,,
14528922868,3.71070,15959967517,15484037,11098711217,-4861256300,,
14528973869,3.76170,15960018518,15535037,11261392756,-4698625762,,
14529023967,3.81180,15960068615,15585135,11421200199,-4538868416,,
14529075007,3.86284,15960119657,15636174,11584012524,-4376107133,,
14529125580,3.91342,15960170229,15686746,11745328788,-4214841441,,
14529176623,3.96446,15960221272,15737789,11908150683,-4052070589,,
14529227180,4.01502,15960271831,15788345,12069422289,-3890849542,,
14529278188,4.06602,15960322839,15839352,12232129348,-3728193491,,
14529328744,4.11658,15960373394,15889907,12393391383,-3566982011,,
14529378788,4.16662,15960423440,15939951,12553029761,-3407393679,,
14529429371,4.21721,15960474023,15990534,12714381114,-3246092909,,
14529480420,4.26825,15960525072,16041581,12877218959,-3083306113,,
14529531260,4.31909,15960575912,16092421,13039390115,-2921185797,,
14529581787,4.36962,15960626439,16142947,13200594733,-2760031706,,
14529632366,4.42020,15960677019,16193542,13361955655,-2598721364,,
14529682930,4.47077,15960727584,16244089,13523198551,-2437529033,,
14529733496,4.52133,15960778149,16294654,13684492486,-2276285663,,
14529784315,4.57215,15960828969,16345472,13846596654,-2114232315,,
14529834865,4.62270,15960879519,16396022,14007845930,-1953033589,,
14529885476,4.67331,15960930130,16446632,14169286600,-1791643530,,
14529936360,4.72419,15960981015,16497515,14331601302,-1629379713,,
14529987411,4.77525,15961032066,16548566,14494445526,-1466586540,,
14530038006,4.82584,15961082662,16599160,14655838348,-1305244314,,
14530089059,4.87689,15961133715,16650212,14818688952,-1142444763,,
14530139383,4.92722,15961184039,16700546,14979246020,-981938019,,
14530189991,4.97783,15961234647,16751143,15140645221,-820589426,,
14530240567,5.02840,15961285224,16801718,15301977435,-659307789,,
14530291147,5.07898,15961335805,16852308,15463351117,-497984688,,
14530341773,5.12961,15961386430,16902923,15624807736,-336578694,,
14530392822,5.18066,15961437480,16953971,15787648771,-173788709,,
14530443430,5.23126,15961488088,17004577,15949076681,-12411407,,
14530494014,5.28185,15961538673,17055162,15961538451,-222,,
14530544148,5.33198,15961588806,17105295,15961588584,-222,,
14530595203,5.38304,15961639862,17156349,15961639638,-224,,
14530646261,5.43410,15961690921,17207408,15961690697,-224,,
14530696798,5.48463,15961741457,17257943,15961741233,-224,,
14530747424,5.53526,15961792084,17308568,15961791857,-227,,
14530797589,5.58542,15961842249,17358733,15961842022,-227,,
14530848161,5.63600,15961892822,17409304,15961892593,-229,,
14530898743,5.68658,15961943404,17459885,15961943175,-229,,
14530949297,5.73713,15961993958,17510439,15961993728,-230,,
14530999897,5.78773,15962044559,17561039,15962044328,-231,,
14531050948,5.83878,15962095610,17612088,15962095378,-232,,
14531101806,5.88964,15962146469,17662946,15962146235,-234,,
14531152834,5.94067,15962197497,17713973,15962197263,-234,,
14531203453,5.99129,15962248116,17764592,15962247881,-235,,
14531254437,6.04227,15962299101,17815585,15962298874,-227,,
14531305506,6.09334,15962350170,17866643,15962349933,-237,,
14531356116,6.14395,15962400779,17917252,15962400542,-237,,
14531406677,6.19451,15962451341,17967812,15962451111,-230,,
14531457244,6.24508,15962501908,18018379,15962501668,-240,,
14531508274,6.29611,15962552938,18069408,15962552707,-231,,
14531559288,6.34712,15962603954,18120421,15962603711,-243,,
14531610391,6.39823,15962655057,18171524,15962654814,-243,,
14531660971,6.44881,15962705636,18222103,15962705392,-244,,
14531712003,6.49984,15962756669,18273134,15962756423,-246,,
14531763069,6.55090,15962807735,18324200,15962807489,-246,,
14531813615,6.60145,15962858281,18374745,15962858034,-247,,
14531863725,6.65156,15962908392,18424854,15962908143,-249,,
14531914790,6.70263,15962959458,18475920,15962959209,-249,,
14531965348,6.75318,15963010016,18526476,15963009766,-250,,
14532015483,6.80332,15963060152,18576610,15963059900,-252,,
14532066077,6.85391,15963110746,18627204,15963110494,-252,,
14532116639,6.90447,15963161307,18677765,15963161054,-253,,
14532167220,6.95505,15963211890,18728346,15963211635,-255,,
14532217776,7.00561,15963262446,18778900,15963262190,-256,,
14532268824,7.05666,15963313493,18829948,15963313237,-256,,
14532319874,7.10771,15963364544,18880997,15963364287,-257,,
14532370904,7.15874,15963415575,18932026,15963415316,-259,,
14532421970,7.20981,15963466641,18983092,15963466382,-259,,
14532472989,7.26082,15963517660,19034110,15963517400,-260,,
14532524024,7.31186,15963568696,19085145,15963568434,-262,,
14532574584,7.36242,15963619256,19135705,15963618994,-262,,
14532625146,7.41298,15963669818,19186275,15963669564,-254,,
14532676047,7.46388,15963720720,19237166,15963720455,-265,,
14532726547,7.51438,15963771220,19287665,15963770955,-265,,
14532777105,7.56494,15963821778,19338222,15963821511,-267,,
14532827229,7.61506,15963871903,19388345,15963871634,-269,,
14532877835,7.66567,15963922509,19438952,15963922241,-268,,
14532928450,7.71629,15963973125,19489565,15963972855,-270,,
14532979063,7.76690,15964023738,19540178,15964023467,-271,,
14533030157,7.81799,15964074831,19591271,15964074560,-271,,
14533080848,7.86868,15964125524,19641962,15964125251,-273,,
14533131757,7.91959,15964176433,19692869,15964176159,-274,,
14533182840,7.97067,15964227516,19743952,15964227241,-275,,
14533233535,8.02137,15964278212,19794647,15964277936,-276,,
14533284583,8.07242,15964329260,19845693,15964328983,-277,,
14533335632,8.12347,15964380308,19896741,15964380031,-277,,
14533386683,8.17452,15964431360,19947792,15964431081,-279,,
14533437730,8.22556,15964482407,19998838,15964482128,-279,,
14533488779,8.27661,15964533456,20049886,15964533175,-281,,
14533539829,8.32766,15964584508,20100936,15964584226,-282,,
14533590879,8.37871,15964635558,20151986,15964635275,-283,,
14533641925,8.42976,15964686604,20203030,15964686320,-284,,
14533693015,8.48085,15964737695,20254120,15964737410,-285,,
14533743584,8.53142,15964788264,20304688,15964787978,-286,,
14533794678,8.58251,15964839357,20355781,15964839070,-287,,
14533844805,8.63264,15964889486,20405908,15964889197,-289,,
14533895414,8.68325,15964940105,20456526,15964939816,-289,,
14533945610,8.73344,15964990291,20506711,15964990000,-291,,
14533996647,8.78448,15965041328,20557747,15965041036,-292,,
14534047256,8.83509,15965091937,20608355,15965091645,-292,,
14534098285,8.88612,15965142967,20659384,15965142674,-293,,
14534149066,8.93690,15965193748,20710164,15965193453,-295,,
14534199313,8.98715,15965243995,20760411,15965243700,-295,,
14534250361,9.03820,15965295043,20811458,15965294748,-295,,
14534301404,9.08924,15965346087,20862500,15965345789,-298,,
14534351660,9.13950,15965396353,20912766,15965396055,-298,,
14534402483,9.19032,15965447167,20963578,15965446867,-300,,
14534452621,9.24046,15965497315,21013725,15965497014,-301,,
14534503227,9.29106,15965547911,21064321,15965547611,-300,,
14534553627,9.34146,15965598312,21114721,15965598010,-302,,
14534604353,9.39219,15965649039,21165445,15965648735,-304,,
14534655183,9.44302,15965699869,21216275,15965699565,-304,,
14534705714,9.49355,15965750400,21266806,15965750095,-305,,
14534756279,9.54411,15965800965,21317369,15965800659,-306,,
14534806882,9.59472,15965851569,21367973,15965851262,-307,,
14534857947,9.64578,15965902634,21419036,15965902326,-308,,
14534909002,9.69684,15965953690,21470090,15965953380,-310,,
14534960067,9.74790,15966004755,21521154,15966004444,-311,,
14535011083,9.79892,15966055782,21572182,15966055472,-310,,
14535061942,9.84978,15966106643,21623041,15966106331,-312,,
14535112534,9.90037,15966157223,21673619,15966156909,-314,,
14535162992,9.95083,15966207681,21724078,15966207367,-314,,
14535213468,10.00130,15966258158,21774553,15966257842,-316,,
14535264525,10.05236,15966309215,21825609,15966308899,-316,,
14535315573,10.10341,15966360263,21876668,15966359958,-305,,
14535366631,10.15447,15966411321,21927723,15966411013,-308,,
14535417680,10.20552,15966462382,21978773,15966462063,-319,,
14535468753,10.25659,15966513444,22029835,15966513124,-320,,
14535519802,10.30764,15966564494,22080883,15966564172,-322,,
14535570790,10.35862,15966615481,22131869,15966615158,-323,,
14535621376,10.40921,15966666067,22182455,15966665744,-323,,
14535680544,10.46838,15966725237,22241622,15966724912,-325,,
14535731322,10.51916,15966776015,22292399,15966775689,-326,,
14535781803,10.56964,15966826496,22342879,15966826169,-327,,
14535832146,10.61998,15966876840,22393222,15966876512,-328,,
14535882731,10.67057,15966927424,22443806,15966927096,-328,,
14535933291,10.72113,15966977985,22494365,15966977655,-330,,
14535984115,10.77195,15967028809,22545189,15967028478,-331,,
14536034705,10.82254,15967079399,22595778,15967079067,-332,,
14536085319,10.87315,15967130014,22646392,15967129681,-333,,
14536136332,10.92417,15967181028,22697404,15967180694,-334,,
14536189364,10.97720,15967234060,22750435,15967233725,-335,,
14536240199,11.02803,15967284895,22801269,15967284559,-336,,
14536290679,11.07851,15967335376,22851748,15967335038,-338,,
14536341271,11.12911,15967385967,22902340,15967385629,-338,,
14536392325,11.18016,15967437021,22953392,15967436682,-339,,
14536443351,11.23119,15967488049,23004419,15967487708,-341,,
14536494017,11.28185,15967538715,23055085,15967538375,-340,,
14536544777,11.33261,15967589474,23105843,15967589132,-342,,
14536594903,11.38274,15967639602,23155968,15967639258,-344,,
14536645452,11.43329,15967690150,23206517,15967689806,-344,,
14536696220,11.48405,15967740918,23257284,15967740574,-344,,
14536747266,11.53510,15967791965,23308329,15967791618,-347,,
14536803007,11.59084,15967847706,23364070,15967847360,-346,,
14536854094,11.64193,15967898794,23415157,15967898446,-348,,
14536904379,11.69221,15967949080,23465440,15967948729,-351,,
14536955078,11.74291,15967999779,23516139,15967999429,-350,,
14537005582,11.79342,15968050294,23566654,15968049944,-350,,
14537056134,11.84397,15968100836,23617193,15968100483,-353,,
14537106457,11.89429,15968151159,23667515,15968150805,-354,,
14537156801,11.94464,15968201503,23717859,15968201149,-354,,
14537208048,11.99588,15968252750,23769105,15968252394,-356,,
14537258678,12.04651,15968303380,23819734,15968303023,-357,,
14537308934,12.09677,15968353636,23869990,15968353279,-357,,
14537359049,12.14688,15968403751,23920104,15968403393,-358,,
14537409396,12.19723,15968454099,23970450,15968453739,-360,,
14537459669,12.24750,15968504373,24020723,15968504013,-360,,
14537509990,12.29782,15968554694,24071043,15968554333,-361,,
14537560316,12.34815,15968605020,24121368,15968604658,-362,,
14537610639,12.39847,15968655343,24171691,15968654980,-363,,
14537660971,12.44881,15968705675,24222022,15968705311,-364,,
14537711652,12.49949,15968756357,24272702,15968755991,-366,,
14537762307,12.55014,15968807013,24323358,15968806647,-366,,
14537813097,12.60093,15968857802,24374146,15968857435,-367,,
14537863709,12.65154,15968908418,24424760,15968908050,-368,,
14537914264,12.70210,15968958970,24475311,15968958601,-369,,
14537964811,12.75265,15969009518,24525859,15969009148,-370,,
14538015358,12.80319,15969060065,24576404,15969059694,-371,,
14538065651,12.85349,15969110366,24626705,15969109994,-372,,
14538116465,12.90430,15969161173,24677511,15969160801,-372,,
14538167184,12.95502,15969211892,24728228,15969211517,-375,,
14538217725,13.00556,15969262433,24778768,15969262057,-376,,
14538268289,13.05612,15969312998,24829332,15969312622,-376,,
14538318578,13.10641,15969363288,24879621,15969362910,-378,,
14538369241,13.15708,15969413951,24930282,15969413571,-380,,
14538419557,13.20739,15969464267,24980598,15969463888,-379,,
14538469905,13.25774,15969514616,25030945,15969514235,-381,,
14538520118,13.30795,15969564828,25081157,15969564446,-382,,
14538570458,13.35829,15969615169,25131497,15969614786,-383,,
14538620945,13.40878,15969665657,25181983,15969665273,-384,,
14538671537,13.45937,15969716249,25232574,15969715864,-385,,
14538722287,13.51012,15969766999,25283324,15969766614,-385,,
14538772970,13.56081,15969817683,25334006,15969817296,-387,,
14538823351,13.61119,15969868064,25384387,15969867676,-388,,
14538873577,13.66141,15969918290,25434612,15969917902,-388,,
14538924044,13.71188,15969968758,25485078,15969968368,-390,,
14538974732,13.76257,15970019446,25535766,15970019055,-391,,
14539025124,13.81296,15970069838,25586157,15970069447,-391,,
14539075670,13.86350,15970120384,25636702,15970119991,-393,,
14539126064,13.91390,15970170778,25687095,15970170384,-394,,
14539176784,13.96462,15970221498,25737815,15970221104,-394,,
14539227568,14.01540,15970272283,25788598,15970271887,-396,,
14539278805,14.06664,15970323520,25839834,15970323123,-397,,
14539329043,14.11688,15970373759,25890072,15970373361,-398,,
14539380093,14.16793,15970424810,25941121,15970424411,-399,,
14539430534,14.21837,15970475250,25991561,15970474850,-400,,
14539481240,14.26908,15970525957,26042266,15970525556,-401,,
14539531401,14.31924,15970576118,26092427,15970575717,-401,,
14539582079,14.36991,15970626797,26143104,15970626394,-403,,
14539632441,14.42028,15970677158,26193465,15970676755,-403,,
14539682522,14.47036,15970727240,26243546,15970726836,-404,,
14539733097,14.52093,15970777815,26294120,15970777410,-405,,
14539783376,14.57121,15970828094,26344398,15970827687,-407,,
14539833486,14.62132,15970878217,26394520,15970877809,-408,,
14539883974,14.67181,15970928694,26444995,15970928285,-409,,
14539934849,14.72268,15970979568,26495869,15970979158,-410,,
14539985568,14.77340,15971030288,26546588,15971029877,-411,,
14540036125,14.82396,15971080845,26597144,15971080433,-412,,
14540086492,14.87433,15971131212,26647510,15971130800,-412,,
14540137070,14.92491,15971181792,26698089,15971181378,-414,,
14540187797,14.97563,15971232519,26748815,15971232104,-415,,
14540238761,15.02660,15971283482,26799777,15971283066,-416,,
14540289082,15.07692,15971333804,26850098,15971333387,-417,,
14540339362,15.12720,15971384085,26900377,15971383667,-418,,
14540389602,15.17744,15971434325,26950616,15971433906,-419,,
14540439893,15.22773,15971484617,27000907,15971484196,-421,,
14540490504,15.27834,15971535228,27051517,15971534806,-422,,
14540540618,15.32845,15971585342,27101630,15971584920,-422,,
