Server clock before sync: 30
Synchronizing server_clock...
[1/51] [2/51] [3/51] [4/51] [5/51] [6/51] [7/51] [8/51] [9/51] [10/51] 
[11/51] [12/51] [13/51] [14/51] [15/51] [16/51] [17/51] [18/51] [19/51] [20/51] 
[21/51] [22/51] [23/51] [24/51] [25/51] [26/51] [27/51] [28/51] [29/51] [30/51] 
[31/51] [32/51] [33/51] [34/51] [35/51] [36/51] [37/51] [38/51] [39/51] [40/51] 
[41/51] [42/51] [43/51] [44/51] [45/51] [46/51] [47/51] [48/51] [49/51] [50/51] 
Best Server Sync RTT: 234460, Worst Server Sync RTT: 236622
Average RTT: 234779.560000
Est Server Time: 15956233924, Computed Server Time offset: 15944494604
Server clock after sync: 15956233926

====== SIMULATION METADATA     =====
Server IP: 128.83.139.94, Port: 8010
Server Drift: 10.00 PPM, Client VHC Drift: -10.00 PPM
Relative Drift Weight: -3.50
Local Server Time Error: 117230
Rapport Period: 40000000
Amortization Period: 5000000
Simulation runtime: 1800 seconds
Simulation runtime: 1800000000 usec, 
 Start: 14525189275, End: 16325189275
====== SIMULATION OUTPUT START =====
Current Real Time,Real Time Elapsed (sec),Local Server Time,Hardware Clock Time,Software Clock Time,Error,Remote Est Time,
14525189456,0.00018,15956234108,11739270,11739270,-15944494838,,
14525424277,0.23500,15956468931,11974087,11974087,-15944494844,15956469053,
14525449428,0.26015,15956494082,11999238,92209614,-15864284468,,
14525499681,0.31041,15956544335,12049490,252508418,-15704035917,,
14525550290,0.36101,15956594945,12100100,413946016,-15542648929,,
14525600731,0.41146,15956645386,12150539,574841332,-15381804054,,
14525651806,0.46253,15956696460,12201613,737762233,-15218934227,,
14525702396,0.51312,15956747052,12252203,899142413,-15057604639,,
14525752995,0.56372,15956797650,12302801,1060541732,-14896255918,,
14525804069,0.61479,15956848724,12353874,1223459444,-14733389280,,
14525854170,0.66490,15956898826,12403975,1383276573,-14573622253,,
14525904746,0.71547,15956949402,12454549,1544605715,-14412343687,,
14525957097,0.76782,15957001754,12506901,1711600117,-14245401637,,
14526007357,0.81808,15957052015,12557159,1871921250,-14085130765,,
14526057516,0.86824,15957102174,12607318,2031923394,-13925178780,,
14526108142,0.91887,15957152799,12657943,2193408841,-13763743958,,
14526158182,0.96891,15957202841,12707982,2353031386,-13604171455,,
14526208744,1.01947,15957253402,12758544,2514315869,-13442937533,,
14526259332,1.07006,15957303990,12809131,2675686480,-13281617510,,
14526310360,1.12109,15957355020,12860159,2838457456,-13118897564,,
14526361394,1.17212,15957406053,12911191,3001247571,-12956158482,,
14526412461,1.22319,15957457120,12962258,3164146143,-12793310977,,
14526463496,1.27422,15957508157,13013292,3326939448,-12630568709,,
14526514572,1.32530,15957559233,13064369,3489869919,-12467689314,,
14526565099,1.37582,15957609759,13114894,3651036376,-12306573383,,
14526616135,1.42686,15957660797,13165929,3813836061,-12143824736,,
14526667181,1.47791,15957711842,13216975,3976667645,-11981044197,,
14526717756,1.52848,15957762418,13267550,4137993597,-11819768821,,
14526768804,1.57953,15957813467,13318596,4300828370,-11656985097,,
14526819520,1.63024,15957864183,13369312,4462607288,-11495256895,,
14526870130,1.68085,15957914792,13419921,4624041696,-11333873096,,
14526920707,1.73143,15957965370,13470497,4785374028,-11172591342,,
14526971265,1.78199,15958015929,13521054,4946645751,-11011370178,,
14527022300,1.83302,15958066964,13572090,5109445436,-10848621528,,
14527073020,1.88375,15958117685,13622808,5271230733,-10686886952,,
14527123453,1.93418,15958168118,13673240,5432106909,-10526061209,,
14527173574,1.98430,15958218239,13723362,5591987837,-10366230402,,
14527224398,2.03512,15958269064,13774184,5754108073,-10204160991,,
14527274836,2.08556,15958319502,13824621,5914997009,-10043322493,,
14527325577,2.13630,15958370243,13875364,6076858863,-9881511380,,
14527376182,2.18691,15958420860,13925978,6238312411,-9720108449,,
14527427253,2.23798,15958471920,13977036,6401185464,-9557286456,,
14527478302,2.28903,15958522969,14028085,6564026618,-9394496351,,
14527529300,2.34002,15958573967,14079082,6726698707,-9231875260,,
14527580375,2.39110,15958625052,14130166,6889651507,-9068973545,,
14527631408,2.44213,15958676076,14181190,7052412913,-8906263163,,
14527681997,2.49272,15958726666,14231777,7213783523,-8744943143,,
14527733018,2.54374,15958777687,14282797,7376532170,-8582245517,,
14527784093,2.59482,15958828762,14333872,7539453071,-8419375691,,
14527835143,2.64587,15958879813,14384922,7702297415,-8256582398,,
14527886189,2.69691,15958930859,14435967,7865128999,-8093801860,,
14527936773,2.74750,15958981443,14486549,8026480470,-7932500973,,
14527987844,2.79857,15959032514,14537620,8189391801,-7769640713,,
14528038915,2.84964,15959083585,14588690,8352296753,-7606786832,,
14528089812,2.90054,15959134483,14639586,8514649852,-7444484631,,
14528140216,2.95094,15959184886,14689990,8675433521,-7283751365,,
14528191261,3.00199,15959235933,14741034,8838261915,-7120974018,,
14528242165,3.05289,15959286837,14791937,9000637344,-6958649493,,
14528293199,3.10392,15959337871,14842971,9163427459,-6795910412,,
14528343696,3.15442,15959388368,14893467,9324504599,-6634883769,,
14528394601,3.20533,15959439274,14944371,9486886407,-6472552867,,
14528444737,3.25546,15959489409,14994507,9646811993,-6312677416,,
14528494960,3.30568,15959539634,15044730,9807018290,-6152521344,,
14528546009,3.35673,15959590682,15095777,9969853064,-5989737618,,
14528596602,3.40733,15959641275,15146370,10131239624,-5828401651,,
14528646701,3.45743,15959691376,15196468,10291050373,-5668641003,,
14528697242,3.50797,15959741916,15247008,10452264679,-5507477237,,
14528747589,3.55831,15959792264,15297354,10612863333,-5346928931,,
14528798087,3.60881,15959842763,15347852,10773950043,-5185892720,,
14528848844,3.65957,15959893520,15398609,10935856556,-5024036964,,
14528899846,3.71057,15959944521,15449609,11098541405,-4861403116,,
14528950875,3.76160,15959995551,15500649,11261353849,-4698641702,,
14529001398,3.81212,15960046074,15551160,11422478837,-4537567237,,
14529052019,3.86274,15960096695,15601780,11583951524,-4376145171,,
14529102583,3.91331,15960147261,15652354,11745280666,-4214866595,,
14529153595,3.96432,15960198272,15703355,11907965515,-4052232757,,
14529204656,4.01538,15960249333,15754415,12070841757,-3889407576,,
14529255160,4.06588,15960299839,15804919,12231947606,-3728352233,,
14529305713,4.11644,15960350392,15855471,12393203380,-3567147012,,
14529356304,4.16703,15960400983,15906061,12554580370,-3405820613,,
14529407355,4.21808,15960452034,15957112,12717427903,-3243024131,,
14529458402,4.26913,15960503082,16008159,12880259487,-3080243595,,
14529509473,4.32020,15960554153,16059228,13043167629,-2917386524,,
14529560262,4.37099,15960604943,16110017,13205179409,-2755425534,,
14529611321,4.42205,15960656001,16161075,13368046082,-2592609919,,
14529661964,4.47269,15960706644,16211717,13529588947,-2431117697,,
14529712995,4.52372,15960757677,16262748,13692372682,-2268384995,,
14529764054,4.57478,15960808736,16313806,13855245735,-2105563001,,
14529814847,4.62557,15960859529,16364598,14017267085,-1943592444,,
14529865410,4.67614,15960910093,16415161,14178554758,-1782355335,,
14529915955,4.72668,15960960638,16465705,14339788202,-1621172436,,
14529966369,4.77709,15961011052,16516119,14500600580,-1460410472,,
14530016456,4.82718,15961061139,16566204,14660366671,-1300694468,,
14530067479,4.87820,15961112163,16617228,14823128078,-1137984085,,
14530117638,4.92836,15961162322,16667386,14983127031,-978035291,,
14530167975,4.97870,15961212659,16717721,15143690597,-817522062,,
14530219013,5.02974,15961263698,16768760,15306499852,-654763846,,
14530269600,5.08033,15961314285,16819345,15467864082,-493450203,,
14530319713,5.13044,15961364398,16869457,15627713111,-333651287,,
14530370280,5.18100,15961414965,16920024,15789019923,-172395042,,
14530420915,5.23164,15961465601,16970658,15950537269,-10928332,,
14530471914,5.28264,15961516601,17021657,15961516624,23,,
14530522063,5.33279,15961566749,17071805,15961566772,23,,
14530572665,5.38339,15961617352,17122406,15961617374,22,,
14530622739,5.43346,15961667426,17172479,15961667447,21,,
14530673784,5.48451,15961718472,17223524,15961718491,19,,
14530724406,5.53513,15961769094,17274146,15961769113,19,,
14530775026,5.58575,15961819714,17324764,15961819731,17,,
14530825614,5.63634,15961870303,17375352,15961870319,16,,
14530876227,5.68695,15961920916,17425965,15961920932,16,,
14530927273,5.73800,15961971963,17477010,15961971977,14,,
14530977880,5.78860,15962022570,17527615,15962022593,23,,
14531028443,5.83917,15962073134,17578180,15962073147,13,,
14531079278,5.89000,15962123969,17629012,15962123980,11,,
14531130356,5.94108,15962175046,17680089,15962175056,10,,
14531181381,5.99211,15962226084,17731127,15962226095,11,,
14531232413,6.04314,15962277105,17782145,15962277112,7,,
14531283484,6.09421,15962328176,17833215,15962328183,7,,
14531334096,6.14482,15962378787,17883827,15962378794,7,,
14531385126,6.19585,15962429819,17934859,15962429829,10,,
14531435704,6.24643,15962480407,17985443,15962480411,4,,
14531486773,6.29750,15962531466,18036502,15962531469,3,,
14531537823,6.34855,15962582517,18087551,15962582519,2,,
14531588351,6.39908,15962633056,18138089,15962633057,1,,
14531639419,6.45014,15962684112,18189145,15962684113,1,,
14531690479,6.50120,15962735184,18240216,15962735184,0,,
14531741552,6.55228,15962786247,18291277,15962786245,-2,,
14531792600,6.60332,15962837295,18342324,15962837292,-3,,
14531843210,6.65393,15962887906,18392935,15962887902,-4,,
14531893735,6.70446,15962938443,18443471,15962938439,-4,,
14531944821,6.75555,15962989516,18494543,15962989510,-6,,
14531995434,6.80616,15963040131,18545157,15963040124,-7,,
14532046037,6.85676,15963090733,18595758,15963090725,-8,,
14532097111,6.90784,15963141808,18646831,15963141799,-9,,
14532147743,6.95847,15963192441,18697464,15963192431,-10,,
14532198760,7.00948,15963243457,18748479,15963243446,-11,,
14532249307,7.06003,15963294005,18799025,15963293993,-12,,
14532300386,7.11111,15963345085,18850104,15963345072,-13,,
14532351403,7.16213,15963396101,18901120,15963396087,-14,,
14532402453,7.21318,15963447151,18952169,15963447136,-15,,
14532453502,7.26423,15963498201,19003217,15963498185,-16,,
14532504053,7.31478,15963548753,19053768,15963548736,-17,,
14532554563,7.36529,15963599263,19104278,15963599245,-18,,
14532605151,7.41588,15963649852,19154864,15963649832,-20,,
14532656197,7.46692,15963700898,19205910,15963700877,-21,,
14532707039,7.51776,15963751740,19256751,15963751719,-21,,
14532757087,7.56781,15963801787,19306798,15963801765,-22,,
14532807710,7.61843,15963852412,19357421,15963852389,-23,,
14532858258,7.66898,15963902960,19407969,15963902936,-24,,
14532908429,7.71915,15963953130,19458138,15963953105,-25,,
14532959041,7.76977,15964003744,19508750,15964003717,-27,,
14533010118,7.82084,15964054820,19559826,15964054793,-27,,
14533061073,7.87180,15964105775,19610780,15964105747,-28,,
14533111585,7.92231,15964156288,19661292,15964156260,-28,,
14533161816,7.97254,15964206521,19711524,15964206491,-30,,
14533212492,8.02322,15964257206,19762208,15964257176,-30,,
14533263564,8.07429,15964308269,19813270,15964308237,-32,,
14533314614,8.12534,15964359318,19864318,15964359286,-32,,
14533365681,8.17641,15964410385,19915384,15964410351,-34,,
14533416713,8.22744,15964461418,19966415,15964461382,-36,,
14533467761,8.27849,15964512467,20017464,15964512431,-36,,
14533518810,8.32953,15964563516,20068511,15964563479,-37,,
14533569860,8.38058,15964614567,20119560,15964614528,-39,,
14533620918,8.43164,15964665624,20170618,15964665585,-39,,
14533671983,8.48271,15964716690,20221683,15964716650,-40,,
14533723025,8.53375,15964767744,20272734,15964767702,-42,,
14533773621,8.58435,15964818329,20323319,15964818287,-42,,
14533824244,8.63497,15964868952,20373941,15964868908,-44,,
14533874394,8.68512,15964919103,20424090,15964919057,-46,,
14533924538,8.73526,15964969247,20474234,15964969202,-45,,
14533975122,8.78585,15965019831,20524817,15965019785,-46,,
14534025738,8.83646,15965070448,20575432,15965070400,-48,,
14534076787,8.88751,15965121496,20626481,15965121448,-48,,
14534127535,8.93826,15965172244,20677228,15965172195,-49,,
14534178223,8.98895,15965222934,20727915,15965222883,-51,,
14534228842,9.03957,15965273553,20778534,15965273501,-52,,
14534279896,9.09062,15965324606,20829587,15965324554,-52,,
14534330590,9.14132,15965375302,20880281,15965375248,-54,,
14534381008,9.19173,15965425719,20930697,15965425664,-55,,
14534431560,9.24229,15965476272,20981249,15965476217,-55,,
14534482173,9.29290,15965526885,21031861,15965526828,-57,,
14534532576,9.34330,15965577288,21082263,15965577230,-58,,
14534583111,9.39384,15965627824,21132798,15965627766,-58,,
14534633674,9.44440,15965678388,21183361,15965678328,-60,,
14534684223,9.49495,15965728937,21233909,15965728876,-61,,
14534735229,9.54595,15965779943,21284914,15965779882,-61,,
14534785787,9.59651,15965830502,21335472,15965830440,-62,,
14534835910,9.64663,15965880625,21385605,15965880573,-52,,
14534887001,9.69773,15965931716,21436685,15965931652,-64,,
14534938006,9.74873,15965982722,21487689,15965982656,-66,,
14534989082,9.79981,15966033798,21538763,15966033731,-67,,
14535039623,9.85035,15966084338,21589304,15966084272,-66,,
14535090473,9.90120,15966135189,21640153,15966135120,-69,,
14535140937,9.95166,15966185653,21690616,15966185583,-70,,
14535191922,10.00265,15966236639,21741600,15966236568,-71,,
14535242527,10.05325,15966287245,21792206,15966287173,-72,,
14535293575,10.10430,15966338293,21843252,15966338220,-73,,
14535344624,10.15535,15966389341,21894300,15966389268,-73,,
14535395657,10.20638,15966440376,21945344,15966440311,-65,,
14535446731,10.25746,15966491449,21996406,15966491373,-76,,
14535497779,10.30850,15966542497,22047453,15966542420,-77,,
14535548828,10.35955,15966593547,22098502,15966593469,-78,,
14535599878,10.41060,15966644598,22149551,15966644519,-79,,
14535655102,10.46583,15966699821,22204774,15966699741,-80,,
14535705943,10.51667,15966750663,22255615,15966750583,-80,,
14535756490,10.56721,15966801210,22306161,15966801128,-82,,
14535807081,10.61781,15966851802,22356751,15966851719,-83,,
14535857657,10.66838,15966902379,22407326,15966902294,-85,,
14535908670,10.71940,15966953391,22458339,15966953307,-84,,
14535958788,10.76951,15967003510,22508457,15967003424,-86,,
14536009157,10.81988,15967053879,22558824,15967053791,-88,,
14536059757,10.87048,15967104480,22609424,15967104392,-88,,
14536110814,10.92154,15967155537,22660481,15967155448,-89,,
14536161925,10.97265,15967206648,22711589,15967206557,-91,,
14536214208,11.02493,15967258932,22763873,15967258841,-91,,
14536265253,11.07598,15967309976,22814917,15967309884,-92,,
14536316201,11.12693,15967360925,22865864,15967360831,-94,,
14536366330,11.17705,15967411054,22915992,15967410960,-94,,
14536417363,11.22809,15967462087,22967025,15967461993,-94,,
14536468077,11.27880,15967512802,23017739,15967512707,-95,,
14536519027,11.32975,15967563752,23068688,15967563655,-97,,
14536569322,11.38005,15967614048,23118982,15967613950,-98,,
14536619526,11.43025,15967664253,23169186,15967664153,-100,,
14536670170,11.48090,15967714897,23219829,15967714797,-100,,
14536721212,11.53194,15967765938,23270870,15967765838,-100,,
14536775752,11.58648,15967820480,23325409,15967820376,-104,,
14536826527,11.63725,15967871254,23376183,15967871150,-104,,
14536877144,11.68787,15967921883,23426812,15967921779,-104,,
14536927818,11.73854,15967972547,23477473,15967972441,-106,,
14536978339,11.78906,15968023068,23527993,15968022961,-107,,
14537028856,11.83958,15968073585,23578511,15968073478,-107,,
14537079163,11.88989,15968123892,23628816,15968123783,-109,,
14537129632,11.94036,15968174362,23679284,15968174252,-110,,
14537180029,11.99075,15968224759,23729682,15968224649,-110,,
14537230996,12.04172,15968275727,23780647,15968275614,-113,,
14537281237,12.09196,15968325968,23830888,15968325855,-113,,
14537331470,12.14219,15968376201,23881120,15968376088,-113,,
14537381587,12.19231,15968426319,23931236,15968426204,-115,,
14537432124,12.24285,15968476856,23981773,15968476740,-116,,
14537482765,12.29349,15968527497,24032413,15968527381,-116,,
14537533853,12.34458,15968578597,24083511,15968578479,-118,,
14537584493,12.39522,15968629225,24134139,15968629106,-119,,
14537634806,12.44553,15968679539,24184452,15968679420,-119,,
14537685428,12.49615,15968730161,24235073,15968730040,-121,,
14537735810,12.54654,15968780544,24285455,15968780422,-122,,
14537786605,12.59733,15968831339,24336248,15968831216,-123,,
14537837199,12.64792,15968881934,24386842,15968881810,-124,,
14537887988,12.69871,15968932723,24437630,15968932598,-125,,
14537938629,12.74935,15968983364,24488270,15968983237,-127,,
14537988823,12.79955,15969033558,24538464,15969033431,-127,,
14538039407,12.85013,15969084143,24589047,15969084015,-128,,
14538090173,12.90090,15969134921,24639824,15969134792,-129,,
14538140497,12.95122,15969185232,24690136,15969185103,-129,,
14538190769,13.00149,15969235506,24740408,15969235375,-131,,
14538241783,13.05251,15969286519,24791420,15969286387,-132,,
14538292433,13.10316,15969337170,24842070,15969337038,-132,,
14538342594,13.15332,15969387331,24892230,15969387197,-134,,
14538392901,13.20363,15969437638,24942536,15969437503,-135,,
14538443091,13.25382,15969487829,24992726,15969487694,-135,,
14538493553,13.30428,15969538292,25043187,15969538155,-137,,
14538543779,13.35450,15969588528,25093423,15969588391,-137,,
14538594335,13.40506,15969639073,25143968,15969638935,-138,,
14538644466,13.45519,15969689206,25194098,15969689066,-140,,
14538694594,13.50532,15969739333,25244225,15969739192,-141,,
14538744812,13.55554,15969789552,25294443,15969789411,-141,,
14538795171,13.60590,15969839912,25344802,15969839769,-143,,
14538845421,13.65615,15969890162,25395051,15969890018,-144,,
14538895744,13.70647,15969940484,25445372,15969940339,-145,,
14538946064,13.75679,15969990805,25495692,15969990659,-146,,
14538996397,13.80712,15970041139,25546024,15970040992,-147,,
14539046635,13.85736,15970091376,25596261,15970091228,-148,,
14539096876,13.90760,15970141619,25646502,15970141470,-149,,
14539147087,13.95781,15970191841,25696723,15970191691,-150,,
14539197315,14.00804,15970242057,25746939,15970241906,-151,,
14539248086,14.05881,15970292830,25797711,15970292678,-152,,
14539298842,14.10957,15970343586,25848465,15970343433,-153,,
14539349581,14.16031,15970394325,25899204,15970394171,-154,,
14539400348,14.21107,15970445103,25949981,15970444948,-155,,
14539451048,14.26177,15970495793,26000670,15970495637,-156,,
14539501294,14.31202,15970546050,26050925,15970545893,-157,,
14539551918,14.36264,15970596663,26101538,15970596505,-158,,
14539602246,14.41297,15970646991,26151865,15970646832,-159,,
14539652968,14.46369,15970697714,26202587,15970697554,-160,,
14539703245,14.51397,15970747992,26252863,15970747831,-161,,
14539753321,14.56405,15970798068,26302939,15970797906,-162,,
14539803398,14.61412,15970848145,26353014,15970847982,-163,,
14539853682,14.66441,15970898430,26403299,15970898266,-164,,
14539903981,14.71471,15970948728,26453596,15970948563,-165,,
14539954369,14.76509,15970999117,26503983,15970998951,-166,,
14540004609,14.81533,15971049358,26554224,15971049191,-167,,
14540055342,14.86607,15971100091,26604955,15971099923,-168,,
14540105961,14.91669,15971150710,26655573,15971150541,-169,,
14540156503,14.96723,15971201264,26706125,15971201092,-172,,
14540207249,15.01797,15971252009,26756870,15971251838,-171,,
14540257881,15.06861,15971302631,26807491,15971302458,-173,,
14540308220,15.11895,15971352971,26857829,15971352797,-174,,
14540358547,15.16927,15971403298,26908156,15971403124,-174,,
14540408687,15.21941,15971453438,26958296,15971453263,-175,,
14540459411,15.27014,15971504163,27009018,15971503986,-177,,
14540509524,15.32025,15971554275,27059131,15971554098,-177,,
14540559700,15.37042,15971604452,27109306,15971604273,-179,,
14540610168,15.42089,15971654921,27159773,15971654740,-181,,
14540660553,15.47128,15971705305,27210158,15971705125,-180,,
