Server clock before sync: 47
Synchronizing server_clock...
[1/51] [2/51] [3/51] [4/51] [5/51] [6/51] [7/51] [8/51] [9/51] [10/51] 
[11/51] [12/51] [13/51] [14/51] [15/51] [16/51] [17/51] [18/51] [19/51] [20/51] 
[21/51] [22/51] [23/51] [24/51] [25/51] [26/51] [27/51] [28/51] [29/51] [30/51] 
[31/51] [32/51] [33/51] [34/51] [35/51] [36/51] [37/51] [38/51] [39/51] [40/51] 
[41/51] [42/51] [43/51] [44/51] [45/51] [46/51] [47/51] [48/51] [49/51] [50/51] 
Best Server Sync RTT: 17823, Worst Server Sync RTT: 21305
Average RTT: 18272.880000
Est Server Time: 615774164, Computed Server Time offset: 614860208
Server clock after sync: 615774165

====== SIMULATION METADATA     =====
Server IP: 128.83.139.94, Port: 8040
Server Drift: 40.00 PPM, Client VHC Drift: -40.00 PPM
Relative Drift Weight: -3.50
Local Server Time Error: 8911
Rapport Period: 30000000
Amortization Period: 5000000
Simulation runtime: 1800 seconds
Simulation runtime: 1800000000 usec, 
 Start: 253818921, End: 2053818921
====== SIMULATION OUTPUT START =====
Current Real Time,Real Time Elapsed (sec),Local Server Time,Hardware Clock Time,Software Clock Time,Error,Remote Est Time,
253818933,0.00001,615774177,913897,913898,-614860279,,
253837100,0.01818,615792345,932063,932064,-614860281,615792224,
253889077,0.07016,615844324,984039,7375757,-608468567,,
253939593,0.12067,615894842,1034553,13638080,-602256762,,
253989740,0.17082,615944991,1084708,19856021,-596088970,,
254040074,0.22115,615995336,1135040,26095658,-589899678,,
254090245,0.27132,616045510,1185209,32315211,-583730299,,
254140499,0.32158,616095766,1235460,38544929,-577550837,,
254190608,0.37169,616145866,1285557,44755556,-571390310,,
254240807,0.42189,616196068,1335754,50978580,-565217488,,
254291013,0.47209,616246275,1385958,57202472,-559043803,,
254342003,0.52308,616297267,1436945,63523558,-552773709,,
254392653,0.57373,616347919,1487593,69802494,-546545425,,
254443041,0.62412,616398308,1537979,76050064,-540348244,,
254493275,0.67435,616448545,1588211,82277551,-534170994,,
254543717,0.72480,616498988,1638651,88529337,-527969651,,
254593945,0.77502,616549219,1688877,94755956,-521793263,,
254644277,0.82536,616599552,1739206,100995469,-515604083,,
254694945,0.87602,616650221,1789872,107276512,-509373709,,
254745587,0.92667,616700866,1840512,113554455,-503146411,,
254795727,0.97681,616751007,1890650,119770165,-496980842,,
254846628,1.02771,616801910,1941549,126080218,-490721692,,
254896877,1.07796,616852161,1991795,132309316,-484542845,,
254947026,1.12810,616902312,2041942,138526142,-478376170,,
254997139,1.17822,616952427,2092053,144738628,-472213799,,
255047788,1.22887,617003078,2142700,151018680,-465984398,,
255098402,1.27948,617053694,2193312,157291912,-459761782,,
255148961,1.33004,617104254,2243868,163559318,-453544936,,
255199075,1.38015,617154371,2293990,169773169,-447381202,,
255249171,1.43025,617204468,2344074,175982060,-441222408,,
255299308,1.48039,617254607,2394209,182198761,-435055846,,
255349667,1.53075,617304968,2444567,188440381,-428864587,,
255400171,1.58125,617355474,2495067,194701093,-422654381,,
255450481,1.63156,617405785,2545375,200937754,-416468031,,
255500724,1.68180,617456041,2595627,207167597,-410288444,,
255550994,1.73207,617506302,2645884,213398059,-404108243,,
255601466,1.78255,617556776,2696354,219655051,-397901725,,
255652480,1.83356,617607802,2747375,225980228,-391627574,,
255702960,1.88404,617658274,2797843,232236849,-385421425,,
255753093,1.93417,617708419,2847984,238452931,-379255488,,
255803280,1.98436,617758597,2898159,244674343,-373084254,,
255853396,2.03448,617808716,2948273,250885962,-366922754,,
255903799,2.08488,617859119,2998674,257135392,-360723727,,
255953957,2.13504,617909279,3048829,263351970,-354557309,,
256004681,2.18576,617960005,3099551,269640079,-348319926,,
256054803,2.23588,618010130,3149671,275853681,-342156449,,
256104993,2.28607,618060322,3199860,282075590,-335984732,,
256155419,2.33650,618110761,3250295,288328119,-329782642,,
256205765,2.38684,618161097,3300626,294567879,-323593218,,
256255925,2.43700,618211258,3350784,300785945,-317425313,,
256306350,2.48743,618261685,3401207,307036986,-311224699,,
256356489,2.53757,618311827,3451345,313252696,-305059131,,
256406617,2.58770,618361957,3501470,319466794,-298895163,,
256457335,2.63841,618412688,3552196,325755524,-292657164,,
256507504,2.68858,618462847,3602352,331973465,-286489382,,
256557720,2.73880,618513065,3652566,338198596,-280314469,,
256608221,2.78930,618563568,3703065,344458936,-274104632,,
256658345,2.83942,618613693,3753187,350672662,-267941031,,
256708785,2.88986,618664136,3803625,356925688,-261738448,,
256759243,2.94032,618714595,3854080,363180573,-255534022,,
256809385,2.99046,618764740,3904220,369396654,-249368086,,
256859914,3.04099,618815270,3954748,375660589,-243154681,,
256910029,3.09111,618865387,4004860,381873200,-236992187,,
256960231,3.14131,618915591,4055060,388096596,-230818995,,
257010740,3.19182,618966102,4105566,394357927,-224608175,,
257060902,3.24198,619016265,4155726,400576240,-218440025,,
257111982,3.29306,619067347,4206814,406909724,-212157623,,
257162588,3.34367,619117954,4257408,413181965,-205935989,,
257212993,3.39407,619168362,4307811,419430527,-199737835,,
257263531,3.44461,619218901,4358346,425695454,-193523447,,
257313764,3.49484,619269137,4408577,431922693,-187346444,,
257364377,3.54546,619319762,4459199,438198405,-181121357,,
257415276,3.59635,619370653,4510086,444506970,-174863683,,
257465789,3.64687,619421177,4560607,450770161,-168651016,,
257516432,3.69751,619471811,4611246,457047981,-162423830,,
257567040,3.74812,619522422,4661853,463321957,-156200465,,
257617194,3.79827,619572578,4711994,469537915,-150034663,,
257667976,3.84905,619623362,4762774,475833339,-143790023,,
257718468,3.89955,619673865,4813274,482093802,-137580063,,
257769077,3.95016,619724467,4863871,488366539,-131357928,,
257819518,4.00060,619774908,4914309,494619317,-125155591,,
257870344,4.05142,619825736,4965133,500920071,-118905665,,
257920561,4.10164,619875956,5015348,507145327,-112730629,,
257970976,4.15205,619926385,5065773,513396740,-106529645,,
258021545,4.20262,619976944,5116327,519664023,-100312921,,
258071740,4.25282,620027140,5166520,525886427,-94140713,,
258122604,4.30368,620078017,5217393,532193380,-87884637,,
258172794,4.35387,620128198,5267571,538413925,-81714273,,
258223428,4.40451,620178834,5318203,544690877,-75487957,,
258273528,4.45461,620228936,5368300,550901504,-69327432,,
258323936,4.50502,620279357,5418717,557151801,-63127556,,
258374060,4.55514,620329472,5468828,563364164,-56965308,,
258424528,4.60561,620379941,5519293,569620537,-50759404,,
258474875,4.65595,620430290,5569638,575861909,-44568381,,
258525044,4.70612,620480461,5619806,582081214,-38399247,,
258575496,4.75657,620530914,5670254,588335355,-32195559,,
258625982,4.80706,620581403,5720738,594593959,-25987444,,
258676147,4.85723,620631580,5770911,600814131,-19817449,,
258726317,4.90740,620681740,5821069,607032197,-13649543,,
258776468,4.95755,620731894,5871228,613250510,-7481384,,
258826637,5.00772,620782065,5921396,619469939,-1312126,,
258877175,5.05825,620832605,5971921,620832083,-522,,
258927718,5.10880,620883150,6022461,620882624,-526,,
258977851,5.15893,620933285,6072592,620932754,-531,,
259028633,5.20971,620984069,6123373,620983535,-534,,
259078844,5.25992,621034281,6173580,621033743,-538,,
259129395,5.31047,621084833,6224129,621084291,-542,,
259180035,5.36111,621135476,6274767,621134930,-546,,
259230193,5.41127,621185635,6324923,621185085,-550,,
259280329,5.46141,621235773,6375057,621235220,-553,,
259330674,5.51175,621286121,6425399,621285562,-559,,
259380763,5.56184,621336211,6475486,621335648,-563,,
259431341,5.61242,621386790,6526062,621386224,-566,,
259481449,5.66253,621436900,6576168,621436330,-570,,
259531528,5.71261,621486982,6626245,621486408,-574,,
259582195,5.76327,621537651,6676910,621537073,-578,,
259632800,5.81388,621588257,6727512,621587674,-583,,
259683494,5.86457,621638953,6778205,621638367,-586,,
259733588,5.91467,621689049,6828296,621688459,-590,,
259783815,5.96489,621739278,6878521,621738684,-594,,
259834477,6.01556,621789942,6929182,621789344,-598,,
259885032,6.06611,621840498,6979733,621839895,-603,,
259935140,6.11622,621890609,7029840,621890002,-607,,
259985770,6.16685,621941250,7080477,621940639,-611,,
260036233,6.21731,621991705,7130928,621991091,-614,,
260086705,6.26778,622042179,7181399,622041561,-618,,
260137316,6.31839,622092792,7232006,622092168,-624,,
260187510,6.36859,622142988,7282198,622142361,-627,,
260237980,6.41906,622193470,7332676,622192839,-631,,
260288807,6.46989,622244299,7383502,622243664,-635,,
260338994,6.52007,622294476,7433676,622293838,-638,,
260389550,6.57063,622345034,7484229,622344391,-643,,
260440157,6.62124,622395644,7534835,622394997,-647,,
260490315,6.67139,622445804,7584991,622445153,-651,,
260541303,6.72238,622496804,7635987,622496149,-655,,
260591477,6.77256,622546969,7686148,622546310,-659,,
260641745,6.82282,622597238,7736413,622596575,-663,,
260692373,6.87345,622647868,7787039,622647201,-667,,
260742520,6.92360,622698028,7837195,622697357,-671,,
260793070,6.97415,622748580,7887743,622747905,-675,,
260843583,7.02466,622799094,7938253,622798415,-679,,
260894104,7.07518,622849608,7988761,622848924,-684,,
260944953,7.12603,622900457,8039608,622899770,-687,,
260995728,7.17681,622951235,8090382,622950544,-691,,
261046220,7.22730,623001729,8140871,623001034,-695,,
261096273,7.27735,623051783,8190921,623051084,-699,,
261146815,7.32789,623102328,8241461,623101624,-704,,
261196971,7.37805,623152486,8291625,623151788,-698,,
261247877,7.42896,623203394,8342519,623202682,-712,,
261298302,7.47938,623253819,8392942,623253104,-715,,
261348843,7.52992,623304362,8443491,623303653,-709,,
261399306,7.58038,623354828,8493952,623354115,-713,,
261449525,7.63060,623405049,8544158,623404321,-728,,
261500341,7.68142,623455867,8594973,623455135,-732,,
261550511,7.73159,623506039,8645141,623505314,-725,,
261600904,7.78198,623556433,8695532,623555694,-739,,
261651547,7.83263,623607078,8746172,623606335,-743,,
261702142,7.88322,623657675,8796764,623656927,-748,,
261752298,7.93338,623707833,8846919,623707081,-752,,
261803423,7.98450,623758959,8898040,623758203,-756,,
261853554,8.03463,623809093,8948171,623808334,-759,,
261904615,8.08569,623860155,8999230,623859392,-763,,
261955293,8.13637,623910835,9049905,623910067,-768,,
262005948,8.18703,623961492,9100558,623960720,-772,,
262056190,8.23727,624011736,9150798,624010960,-776,,
262106349,8.28743,624061897,9200954,624061117,-780,,
262156899,8.33798,624112449,9251502,624111665,-784,,
262207896,8.38898,624163447,9302496,624162658,-789,,
262258472,8.43955,624214024,9353070,624213232,-792,,
262308601,8.48968,624264156,9403197,624263360,-796,,
262359157,8.54024,624314714,9453751,624313914,-800,,
262409281,8.59036,624364840,9503873,624364036,-804,,
262459415,8.64049,624414976,9554005,624414167,-809,,
262509549,8.69063,624465112,9604136,624464299,-813,,
262559677,8.74076,624515241,9654262,624514435,-806,,
262610383,8.79146,624565949,9704966,624565140,-809,,
262660537,8.84162,624616104,9755118,624615280,-824,,
262711135,8.89221,624666704,9805713,624665875,-829,,
262761311,8.94239,624716882,9855887,624716049,-833,,
262811403,8.99248,624766976,9905976,624766139,-837,,
262862113,9.04319,624817688,9956685,624816847,-841,,
262912249,9.09333,624867825,10006819,624866991,-834,,
262962738,9.14382,624918317,10057305,624917467,-850,,
263013300,9.19438,624968881,10107866,624968028,-853,,
263063799,9.24488,625019382,10158362,625018525,-857,,
263113911,9.29499,625069506,10208482,625068645,-861,,
263164077,9.34516,625119673,10258647,625118809,-864,,
263214328,9.39541,625169916,10308885,625169048,-868,,
263264797,9.44588,625220387,10359351,625219513,-874,,
263314891,9.49597,625270493,10409454,625269616,-877,,
263365016,9.54609,625320610,10459567,625319729,-881,,
263415517,9.59660,625371112,10510065,625370227,-885,,
263465650,9.64673,625421247,10560197,625420359,-888,,
263515890,9.69697,625471488,10610433,625470595,-893,,
263566065,9.74714,625521666,10660607,625520769,-897,,
263616214,9.79729,625571817,10710753,625570916,-901,,
263666804,9.84788,625622408,10761340,625621503,-905,,
263717310,9.89839,625672927,10811856,625672018,-909,,
263767753,9.94883,625723360,10862284,625722447,-913,,
263817982,9.99906,625773592,10912513,625772675,-917,,
263868615,10.04969,625824238,10963154,625823317,-921,,
263919008,10.10009,625874632,11013545,625873707,-925,,
263969166,10.15024,625924792,11063701,625923863,-929,,
264019578,10.20066,625975195,11114100,625974262,-933,,
264070185,10.25126,626025805,11164705,626024867,-938,,
264120768,10.30185,626076389,11215285,626075448,-941,,
264171722,10.35280,626127345,11266237,626126400,-945,,
264221969,10.40305,626177593,11316482,626176645,-948,,
264272536,10.45361,626228162,11367047,626227209,-953,,
264322679,10.50376,626278308,11417188,626277350,-958,,
264373283,10.55436,626328914,11467790,626327952,-962,,
264423992,10.60507,626379624,11518496,626378659,-965,,
264474535,10.65561,626430169,11569038,626429200,-969,,
264524817,10.70590,626480453,11619317,626479480,-973,,
264574990,10.75607,626530628,11669487,626529650,-978,,
264625828,10.80691,626581468,11720323,626580486,-982,,
264675930,10.85701,626631572,11770423,626630586,-986,,
264726136,10.90722,626681779,11820627,626680790,-989,,
264776232,10.95731,626731887,11870732,626730894,-993,,
264826810,11.00789,626782457,11921297,626781459,-998,,
264876981,11.05806,626832630,11971466,626831628,-1002,,
264927355,11.10843,626883006,12021838,626882000,-1006,,
264977906,11.15898,626933559,12072387,626932549,-1010,,
265028338,11.20942,626983993,12122816,626982979,-1014,,
265078482,11.25956,627034138,12172957,627033120,-1018,,
265129365,11.31044,627085023,12223839,627084001,-1022,,
265179966,11.36105,627135626,12274438,627134600,-1026,,
265230678,11.41176,627186340,12325147,627185310,-1030,,
265281527,11.46261,627237191,12375995,627236157,-1034,,
265332157,11.51324,627287823,12426622,627286784,-1039,,
265382731,11.56381,627338398,12477193,627337356,-1042,,
265433087,11.61417,627388766,12527557,627387719,-1047,,
265483210,11.66429,627438881,12577669,627437831,-1050,,
265533507,11.71459,627489190,12627974,627488136,-1054,,
265583788,11.76487,627539473,12678252,627538414,-1059,,
265634399,11.81548,627590076,12728851,627589013,-1063,,
265684938,11.86602,627640616,12779388,627639550,-1066,,
265735155,11.91623,627690835,12829602,627689765,-1070,,
265785714,11.96679,627741396,12880160,627740322,-1074,,
265836237,12.01732,627791920,12930679,627790841,-1079,,
265886848,12.06793,627842534,12981289,627841451,-1083,,
265937823,12.11890,627893510,13032261,627892423,-1087,,
265988397,12.16948,627944087,13082834,627942996,-1091,,
266038929,12.22001,627994620,13133364,627993526,-1094,,
266089770,12.27085,628045463,13184201,628044364,-1099,,
266140222,12.32130,628095916,13234651,628094813,-1103,,
266190835,12.37191,628146532,13285262,628145424,-1108,,
266241375,12.42245,628197074,13335801,628195963,-1111,,
266292447,12.47353,628248147,13386870,628247032,-1115,,
266342744,12.52382,628298446,13437164,628297327,-1119,,
266393575,12.57465,628349278,13487993,628348155,-1123,,
266443781,12.62486,628399487,13538198,628398360,-1127,,
266494224,12.67530,628449931,13588638,628448800,-1131,,
266544748,12.72583,628500458,13639160,628499322,-1136,,
266594887,12.77597,628550599,13689296,628549459,-1140,,
266645944,12.82702,628601658,13740351,628600514,-1144,,
266696418,12.87750,628652133,13790824,628650986,-1147,,
266746671,12.92775,628702387,13841074,628701236,-1151,,
266797492,12.97857,628753210,13891893,628752055,-1155,,
266848032,13.02911,628803753,13942430,628802593,-1160,,
266898135,13.07921,628853857,13992531,628852693,-1164,,
266948184,13.12926,628903909,14042578,628902741,-1168,,
266998270,13.17935,628953996,14092663,628952825,-1171,,
267048566,13.22964,629004294,14142957,629003119,-1175,,
267098699,13.27978,629054428,14193087,629053249,-1179,,
267148856,13.32994,629104588,14243242,629103404,-1184,,
267198980,13.38006,629154714,14293364,629153537,-1177,,
267249100,13.43018,629204836,14343491,629203653,-1183,,
267299663,13.48074,629255400,14394053,629254215,-1185,,
267350343,13.53142,629306082,14444721,629304883,-1199,,
267400880,13.58196,629356621,14495254,629355417,-1204,,
267451010,13.63209,629406753,14545382,629405545,-1208,,
267501105,13.68218,629456850,14595476,629455638,-1212,,
267551234,13.73231,629506981,14645602,629505764,-1217,,
267601565,13.78264,629557312,14695931,629556093,-1219,,
267651865,13.83294,629607615,14746229,629606392,-1223,,
267702906,13.88398,629658658,14797278,629657440,-1218,,
267753477,13.93456,629709231,14847836,629707999,-1232,,
267803874,13.98495,629759630,14898232,629758394,-1236,,
267853988,14.03507,629809746,14948343,629808506,-1240,,
267904326,14.08540,629860085,14998679,629858842,-1243,,
267954417,14.13550,629910178,15048768,629908930,-1248,,
268004915,14.18599,629960678,15099263,629959426,-1252,,
268055791,14.23687,630011565,15150147,630010309,-1256,,
268106380,14.28746,630062147,15200724,630060887,-1260,,
268156480,14.33756,630112249,15250822,630110985,-1264,,
268206601,14.38768,630162372,15300940,630161103,-1269,,
268257077,14.43816,630212849,15351414,630211576,-1273,,
268307673,14.48875,630263447,15402008,630262170,-1277,,
268357783,14.53886,630313559,15452116,630312279,-1280,,
268408380,14.58946,630364158,15502712,630362884,-1274,,
268458515,14.63959,630414295,15552843,630413006,-1289,,
268508959,14.69004,630464751,15603296,630463458,-1293,,
268559101,14.74018,630514884,15653425,630513597,-1287,,
268610130,14.79121,630565915,15704462,630564624,-1291,,
268660757,14.84184,630616544,15755077,630615239,-1305,,
268711123,14.89220,630666911,15805440,630665602,-1309,,
268761996,14.94308,630717797,15856322,630716484,-1313,,
268812116,14.99320,630767919,15906439,630766601,-1318,,
268862249,15.04333,630818053,15956570,630816733,-1320,,
268912431,15.09351,630868226,16006740,630866902,-1324,,
268962640,15.14372,630918438,16056947,630917109,-1329,,
269013182,15.19426,630968982,16107486,630967649,-1333,,
269063419,15.24450,631019221,16157721,631017884,-1337,,
269113848,15.29493,631069651,16208148,631068310,-1341,,
269164211,15.34529,631120015,16258509,631118671,-1344,,
269214370,15.39545,631170186,16308676,631168838,-1348,,
269264630,15.44571,631220439,16358923,631219086,-1353,,
269314963,15.49604,631270774,16409254,631269417,-1357,,
269365407,15.54649,631321219,16459706,631319868,-1351,,
269415995,15.59707,631371810,16510282,631370445,-1365,,
269466623,15.64770,631422439,16560908,631421071,-1368,,
269516758,15.69784,631472576,16611040,631471202,-1374,,
269567380,15.74846,631523200,16661661,631521823,-1377,,
269617815,15.79889,631573647,16712104,631572266,-1381,,
269667979,15.84906,631623803,16762255,631622418,-1385,,
269718586,15.89967,631674412,16812860,631673022,-1390,,
269769006,15.95008,631724844,16863287,631723450,-1394,,
269819303,16.00038,631775142,16913583,631773745,-1397,,
269870020,16.05110,631825850,16964287,631824449,-1401,,
269920565,16.10164,631876397,17014830,631874992,-1405,,
269971122,16.15220,631926957,17065385,631925548,-1409,,
270021658,16.20274,631977494,17115918,631976080,-1414,,
270072216,16.25330,632028055,17166474,632026637,-1418,,
270122764,16.30384,632078603,17217020,632077182,-1421,,
270173705,16.35478,632129546,17267959,632128121,-1425,,
270224752,16.40583,632180596,17319005,632179167,-1429,,
270275052,16.45613,632230897,17369301,632229463,-1434,,
270325335,16.50641,632281182,17419582,632279745,-1437,,
270375515,16.55659,632331364,17469760,632329922,-1442,,
270426132,16.60721,632381984,17520375,632380547,-1437,,
270476819,16.65790,632432672,17571060,632431222,-1450,,
270527142,16.70822,632482996,17621380,632481542,-1454,,
270577406,16.75849,632533263,17671643,632531805,-1458,,
270628013,16.80909,632583882,17722258,632582420,-1462,,
270678153,16.85923,632634014,17772386,632632548,-1466,,
270728763,16.90984,632684625,17822993,632683155,-1470,,
